wout,mag_flicker_0,mag_flicker_1,mag_flicker_2,phase_flicker_0,phase_flicker_1,phase_flicker_2
1.000000000000000021e-02,1.086848259029719443e+01,5.864074022748208215e+00,5.381811880372269208e-01,-2.885175930292101043e+02,-3.024848404492949498e+02,-3.418516915803605798e+02
1.018591388054116906e-02,1.101543687321748166e+01,5.983034612141494790e+00,5.571139908349344028e-01,-2.882658874158746585e+02,-3.020599029709367187e+02,-3.415447022017614245e+02
1.037528415818012723e-02,1.116281365477492216e+01,6.103099241850467926e+00,5.766688187982831337e-01,-2.880192529649947346e+02,-3.016398077879573520e+02,-3.412335599611415091e+02
1.056817509213658565e-02,1.131059953525744532e+01,6.224247263575449551e+00,5.968631113426665635e-01,-2.877776608789432089e+02,-3.012246433894409847e+02,-3.409182610882012909e+02
1.076465213629834890e-02,1.145878143104868307e+01,6.346457856879748505e+00,6.177145984128500356e-01,-2.875410815491354128e+02,-3.008144935092715855e+02,-3.405988047036906323e+02
1.096478196143185063e-02,1.160734657139389903e+01,6.469710062284902641e+00,6.392412919652523673e-01,-2.873094846464849752e+02,-3.004094371696552344e+02,-3.402751929507032287e+02
1.116863247780561230e-02,1.175628249478831755e+01,6.593982813385540709e+00,6.614614763889734572e-01,-2.870828392087063889e+02,-3.000095487350189956e+02,-3.399474311269426607e+02
1.137627285823430978e-02,1.190557704501975067e+01,6.719254967912997145e+00,6.843936978262834536e-01,-2.868611137244795373e+02,-2.996148979756452491e+02,-3.396155278176191246e+02
1.158777356155126122e-02,1.205521836689612059e+01,6.845505337685673375e+00,7.080567523551893894e-01,-2.866442762144946528e+02,-2.992255501403870426e+02,-3.392794950286062772e+02
1.180320635651730017e-02,1.220519490168691590e+01,6.972712717392774984e+00,7.324696729989628174e-01,-2.864322943094113612e+02,-2.988415660378013285e+02,-3.389393483194601799e+02
1.202264434617413176e-02,1.235549538230627320e+01,7.100855912166583295e+00,7.576517155301289996e-01,-2.862251353247671091e+02,-2.984630021250337109e+02,-3.385951069358733321e+02
1.224616199265048978e-02,1.250610882826395809e+01,7.229913763906592905e+00,7.836223430396496159e-01,-2.860227663328822700e+02,-2.980899106037884394e+02,-3.382467939411088196e+02
1.247383514242943192e-02,1.265702454040898317e+01,7.359865176326701786e+00,8.104012092453650729e-01,-2.858251542318124621e+02,-2.977223395227226774e+02,-3.378944363459337410e+02
1.270574105208541887e-02,1.280823209548937847e+01,7.490689138704400563e+00,8.380081405179375942e-01,-2.856322658114042383e+02,-2.973603328856141275e+02,-3.375380652365408309e+02
1.294195841449986319e-02,1.295972134055002556e+01,7.622364748317719929e+00,8.664631166067309209e-01,-2.854440678165157124e+02,-2.970039307646599696e+02,-3.371777158999245216e+02
1.318256738556407466e-02,1.311148238718935488e+01,7.754871231562896483e+00,8.957862500532187688e-01,-2.852605270074676014e+02,-2.966531694182851879e+02,-3.368134279461520464e+02
1.342764961137864199e-02,1.326350560569417070e+01,7.888187963751633447e+00,9.259977642845882428e-01,-2.850816102177924449e+02,-2.963080814128510383e+02,-3.364452454269468831e+02
1.367728825595849670e-02,1.341578161907077771e+01,8.022294487593068624e+00,9.571179703862143784e-01,-2.849072844093537924e+02,-2.959686957476793054e+02,-3.360732169499810880e+02
1.393156802945303557e-02,1.356830129698913190e+01,8.157170530370672523e+00,9.891672425578394989e-01,-2.847375167249080050e+02,-2.956350379828277823e+02,-3.356973957882553918e+02
1.419057521689091883e-02,1.372105574965574171e+01,8.292796019829561160e+00,1.022165992264957968e+00,-2.845722745381850700e+02,-2.953071303690770719e+02,-3.353178399839282520e+02
1.445439770745927249e-02,1.387403632162973288e+01,8.429151098793946417e+00,1.056134641104061744e+00,-2.844115255015630623e+02,-2.949849919796142217e+02,-3.349346124459440830e+02
1.472312502432718793e-02,1.402723458559537661e+01,8.566216138538674585e+00,1.091093592407887947e+00,-2.842552375914150389e+02,-2.946686388429268959e+02,-3.345477810407998049e+02
1.499684835502373276e-02,1.418064233610349234e+01,8.703971750942343988e+00,1.127063201624602051e+00,-2.841033791512047628e+02,-2.943580840764448681e+02,-3.341574186757832194e+02
1.527566058238072171e-02,1.433425158329278482e+01,8.842398799452611868e+00,1.164063745513030934e+00,-2.839559189324095883e+02,-2.940533380204987566e+02,-3.337636033740158723e+02
1.555965631605074270e-02,1.448805454660151426e+01,8.981478408897107357e+00,1.202115390204496537e+00,-2.838128261333473574e+02,-2.937544083721893458e+02,-3.333664183406348229e+02
1.584893192461113431e-02,1.464204364847870643e+01,9.121191974175637540e+00,1.241238158190448804e+00,-2.836740704359856409e+02,-2.934613003187925528e+02,-3.329659520194555284e+02
1.614358556826486074e-02,1.479621150810342556e+01,9.261521167871393345e+00,1.281451894303808015e+00,-2.835396220408073304e+02,-2.931740166703498289e+02,-3.325622981394694762e+02
1.644371723214931372e-02,1.495055093511957622e+01,9.402447946820357672e+00,1.322776230770943195e+00,-2.834094516998099493e+02,-2.928925579911237378e+02,-3.321555557505503771e+02
1.674942876026437252e-02,1.510505492339308020e+01,9.543954557679398931e+00,1.365230551419907012e+00,-2.832835307477109268e+02,-2.926169227296252302e+02,-3.317458292477614350e+02
1.706082389003123548e-02,1.525971664479734535e+01,9.686023541534449777e+00,1.408833955139584315e+00,-2.831618311314326775e+02,-2.923471073469437442e+02,-3.313332283836903116e+02
1.737800828749375484e-02,1.541452944303243378e+01,9.828637737590760537e+00,1.453605218692909595e+00,-2.830443254379380846e+02,-2.920831064431391155e+02,-3.309178682682679096e+02
1.770108958317421002e-02,1.556948682748231327e+01,9.971780285987591697e+00,1.499562758995791167e+00,-2.829309869204855090e+02,-2.918249128814782125e+02,-3.304998693555714340e+02
1.803017740859568993e-02,1.572458246711437191e+01,1.011543462977969554e+01,1.546724594981487622e+00,-2.828217895233709669e+02,-2.915725179103222331e+02,-3.300793574171547675e+02
1.836538343348346342e-02,1.587981018442438064e+01,1.025958451612792466e+01,1.595108309177825090e+00,-2.827167079052240979e+02,-2.913259112824945873e+02,-3.296564635015047315e+02
1.870682140365800480e-02,1.603516394942973022e+01,1.040421399674081471e+01,1.644731009131695787e+00,-2.826157174609202798e+02,-2.910850813719806069e+02,-3.292313238792762604e+02
1.905460717963247327e-02,1.619063787371321084e+01,1.054930742760856965e+01,1.695609288821943172e+00,-2.825187943421713044e+02,-2.908500152878302742e+02,-3.288040799740235798e+02
1.940885877592778141e-02,1.634622620451900943e+01,1.069484946807003389e+01,1.747759190207320623e+00,-2.824259154768537883e+02,-2.906206989851555136e+02,-3.283748782782136573e+02
1.976969640111861035e-02,1.650192331890230690e+01,1.084082507925247363e+01,1.801196165061288212e+00,-2.823370585871335265e+02,-2.903971173731304134e+02,-3.279438702543787372e+02
2.013724249862388488e-02,1.665772371793316964e+01,1.098721952192301110e+01,1.855935037249465624e+00,-2.822522022064392786e+02,-2.901792544199224153e+02,-3.275112122213427028e+02
2.051162178825565591e-02,1.681362202095531444e+01,1.113401835378934024e+01,1.911989965608494879e+00,-2.821713256953406130e+02,-2.899670932544946140e+02,-3.270770652255383766e+02
2.089296130854039965e-02,1.696961295989969187e+01,1.128120742628635043e+01,1.969374407587237474e+00,-2.820944092563794925e+02,-2.897606162652380704e+02,-3.266415948975138122e+02
2.128139045982712155e-02,1.712569137365261085e+01,1.142877288088384802e+01,2.028101083811904459e+00,-2.820214339479037449e+02,-2.895598051954030439e+02,-3.262049712938139692e+02
2.167704104819695443e-02,1.728185220247783960e+01,1.157670114494937152e+01,2.088181943736556967e+00,-2.819523816969496011e+02,-2.893646412353126038e+02,-3.257673687245128349e+02
2.208004733018900309e-02,1.743809048249165627e+01,1.172497892719864865e+01,2.149628132538649705e+00,-2.818872353112154769e+02,-2.891751051113544122e+02,-3.253289655667574607e+02
2.249054605835780485e-02,1.759440134018970525e+01,1.187359321276485247e+01,2.212449959416627365e+00,-2.818259784901703142e+02,-2.889911771717525539e+02,-3.248899440647784331e+02
2.290867652767772725e-02,1.775077998702419535e+01,1.202253125791643562e+01,2.276656867442315768e+00,-2.817685958353339970e+02,-2.888128374691360705e+02,-3.244504901169063373e+02
2.333458062281001943e-02,1.790722171402963170e+01,1.217178058445176170e+01,2.342257405115517610e+00,-2.817150728597679858e+02,-2.886400658399252279e+02,-3.240107930502221052e+02
2.376840286624876120e-02,1.806372188649532617e+01,1.232132897379744740e+01,2.409259199761443426e+00,-2.816653959968097070e+02,-2.884728419805650788e+02,-3.235710453835548606e+02
2.421029046736177665e-02,1.822027593868239848e+01,1.247116446083579966e+01,2.477668932903736909e+00,-2.816195526080849163e+02,-2.883111455206438904e+02,-3.231314425796179535e+02
2.466039337234338796e-02,1.837687936858307225e+01,1.262127532748525027e+01,2.547492317736632206e+00,-2.815775309908253803e+02,-2.881549560929369704e+02,-3.226921827871552750e+02
2.511886431509579784e-02,1.853352773271968701e+01,1.277165009605646517e+01,2.618734078809489496e+00,-2.815393203845232506e+02,-2.880042534004239769e+02,-3.222534665740362811e+02
2.558585886905645132e-02,1.869021664098096736e+01,1.292227752240514960e+01,2.691397934025695271e+00,-2.815049109769448137e+02,-2.878590172803303062e+02,-3.218154966523080134e+02
2.606153549998894980e-02,1.884694175149255457e+01,1.307314658890148706e+01,2.765486579045366433e+00,-2.814742939095289103e+02,-2.877192277652467851e+02,-3.213784775962668050e+02
2.654605561975538486e-02,1.900369876551914317e+01,1.322424649723457790e+01,2.841001674168308622e+00,-2.814474612821911137e+02,-2.875848651413862171e+02,-3.209426155546667587e+02
2.703958364108843479e-02,1.916048342239511371e+01,1.337556666106916659e+01,2.917943833759626404e+00,-2.814244061575522551e+02,-2.874559100040348198e+02,-3.205081179582223285e+02
2.754228703338166065e-02,1.931729149448056404e+01,1.352709669857050834e+01,2.996312618265729810e+00,-2.814051225646092576e+02,-2.873323433102609101e+02,-3.200751932235983190e+02
2.805433637951713216e-02,1.947411878213965508e+01,1.367882642481217559e+01,3.076106528853594480e+00,-2.813896055018626043e+02,-2.872141464289429109e+02,-3.196440504551047184e+02
2.857590543374946557e-02,1.963096110873796363e+01,1.383074584408035079e+01,3.157323004690595347e+00,-2.813778509399131167e+02,-2.871013011881786952e+02,-3.192148991453297526e+02
2.910717118066605269e-02,1.978781431565555238e+01,1.398284514208707208e+01,3.239958422866711985e+00,-2.813698558235395240e+02,-2.869937899201411255e+02,-3.187879488759517130e+02
2.964831389524342359e-02,1.994467425731244958e+01,1.413511467810383238e+01,3.324008100945278876e+00,-2.813656180732646703e+02,-2.868915955034405556e+02,-3.183634090199643083e+02
3.019951720402016052e-02,2.010153679620309930e+01,1.428754497702590598e+01,3.409466302112988068e+00,-2.813651365864171225e+02,-2.867947014030578430e+02,-3.179414884465399496e+02
3.076096814740707924e-02,2.025839779793642137e+01,1.444012672137683850e+01,3.496326242884574942e+00,-2.813684112376929534e+02,-2.867030917079086976e+02,-3.175223952297304777e+02
3.133285724315585524e-02,2.041525312627802435e+01,1.459285074326156284e+01,3.584580103302954512e+00,-2.813754428792190652e+02,-2.866167511660985951e+02,-3.171063363621743747e+02
3.191537855100761573e-02,2.057209863819110396e+01,1.474570801627578831e+01,3.674219039561141376e+00,-2.813862333401198725e+02,-2.865356652179274874e+02,-3.166935174749374369e+02
3.250872973854343484e-02,2.072893017887269451e+01,1.489868964737850909e+01,3.765233198959034855e+00,-2.814007854255838197e+02,-2.864598200267001289e+02,-3.162841425645664799e+02
3.311311214825911342e-02,2.088574357678177762e+01,1.505178686873361826e+01,3.857611737095196336e+00,-2.814191029154273451e+02,-2.863892025073957370e+02,-3.158784137283765858e+02
3.372873086588688840e-02,2.104253463865579477e+01,1.520499102952599380e+01,3.951342837182136858e+00,-2.814411905621490746e+02,-2.863238003532500784e+02,-3.154765309089312950e+02
3.435579478998746633e-02,2.119929914451243746e+01,1.535829358775675857e+01,4.046413731362886956e+00,-2.814670540884668526e+02,-2.862636020602985809e+02,-3.150786916486005680e+02
3.499451670283573040e-02,2.135603284263308410e+01,1.551168610202162945e+01,4.142810723896909408e+00,-2.814967001843278354e+02,-2.862085969499268003e+02,-3.146850908550100030e+02
3.564511334262442793e-02,2.151273144452494179e+01,1.566516022327597746e+01,4.240519216075140818e+00,-2.815301365033780030e+02,-2.861587751894735447e+02,-3.142959205781096443e+02
3.630780547701013827e-02,2.166939061985842585e+01,1.581870768658942694e+01,4.339523732716629389e+00,-2.815673716588784714e+02,-2.861141278109255381e+02,-3.139113697995099415e+02
3.698281797802662613e-02,2.182600599137690978e+01,1.597232030289250027e+01,4.439807950093441313e+00,-2.816084152190503573e+02,-2.860746467277430156e+02,-3.135316242346401623e+02
3.767037989839089329e-02,2.198257312977566613e+01,1.612598995071732944e+01,4.541354725125803071e+00,-2.816532777018307456e+02,-2.860403247498495602e+02,-3.131568661482007201e+02
3.837072454922788034e-02,2.213908754854713834e+01,1.627970856793407961e+01,4.644146125686201998e+00,-2.817019705690189539e+02,-2.860111555968182984e+02,-3.127872741832836709e+02
3.908408957924021376e-02,2.229554469878981138e+01,1.643346814348436524e+01,4.748163461849141953e+00,-2.817545062197886523e+02,-2.859871339092808853e+02,-3.124230232044495779e+02
3.981071705534973415e-02,2.245193996397789249e+01,1.658726070911263051e+01,4.853387317922496003e+00,-2.818108979835429295e+02,-2.859682552585857138e+02,-3.120642841549549757e+02
4.055085354483839444e-02,2.260826865468940738e+01,1.674107833109630050e+01,4.959797585096838546e+00,-2.818711601120825208e+02,-2.859545161547233647e+02,-3.117112239282370751e+02
4.130475019901614503e-02,2.276452600329031384e+01,1.689491310197512064e+01,5.067373494550909463e+00,-2.819353077710601383e+02,-2.859459140525385124e+02,-3.113640052536751455e+02
4.207266283844442178e-02,2.292070715857241936e+01,1.704875713228009815e+01,5.176093650853944794e+00,-2.820033570306862885e+02,-2.859424473562415301e+02,-3.110227865965628666e+02
4.285485203974396390e-02,2.307680718034320222e+01,1.720260254226224816e+01,5.285936065509640791e+00,-2.820753248556550261e+02,-2.859441154222282648e+02,-3.106877220721454478e+02
4.365158322401661156e-02,2.323282103396573817e+01,1.735644145362122259e+01,5.396878190491111837e+00,-2.821512290942516756e+02,-2.859509185602161097e+02,-3.103589613734999944e+02
4.446312674691089289e-02,2.338874358484711991e+01,1.751026598123397093e+01,5.508896951621928828e+00,-2.822310884666045467e+02,-2.859628580326976817e+02,-3.100366497129622871e+02
4.528975799036209088e-02,2.354456959287425377e+01,1.766406822488341533e+01,5.621968781664802961e+00,-2.823149225520396612e+02,-2.859799360527106273e+02,-3.097209277767394155e+02
4.613175745603794592e-02,2.370029370679589675e+01,1.781784026098731388e+01,5.736069652986506284e+00,-2.824027517754952896e+02,-2.860021557799201446e+02,-3.094119316922821668e+02
4.698941086052155908e-02,2.385591045855029790e+01,1.797157413432742956e+01,5.851175109675439856e+00,-2.824945973929507090e+02,-2.860295213150038762e+02,-3.091097930079374123e+02
4.786300923226385201e-02,2.401141425753795033e+01,1.812526184977934207e+01,5.967260298996435175e+00,-2.825904814758214911e+02,-2.860620376923283175e+02,-3.088146386843482674e+02
4.875284901033865442e-02,2.416679938483958878e+01,1.827889536404331849e+01,6.084300002076009406e+00,-2.826904268942715248e+02,-2.860997108708997416e+02,-3.085265910970244931e+02
4.965923214503362854e-02,2.432205998737963171e+01,1.843246657737695671e+01,6.202268663720246877e+00,-2.827944572993887959e+02,-2.861425477235712265e+02,-3.082457680494678698e+02
5.058246620031139895e-02,2.447719007203579267e+01,1.858596732533036899e+01,6.321140421276605359e+00,-2.829025971041712637e+02,-2.861905560244819640e+02,-3.079722827962020233e+02
5.152286445817564481e-02,2.463218349969614707e+01,1.873938937048527009e+01,6.440889132460291933e+00,-2.830148714632652514e+02,-2.862437444347021369e+02,-3.077062440750306109e+02
5.248074602497725810e-02,2.478703397926506113e+01,1.889272439419930194e+01,6.561488402075099202e+00,-2.831313062513976888e+02,-2.863021224860548841e+02,-3.074477561478229291e+02
5.345643593969716389e-02,2.494173506162038123e+01,1.904596398835762017e+01,6.682911607568104095e+00,-2.832519280404412712e+02,-2.863657005630795425e+02,-3.071969188491121372e+02
5.445026528424212059e-02,2.509628013352421050e+01,1.919909964713394501e+01,6.805131923366571911e+00,-2.833767640750492660e+02,-2.864344898831025148e+02,-3.069538276417776501e+02
5.546257129579107437e-02,2.525066241149072255e+01,1.935212275876392241e+01,6.928122343954830953e+00,-2.835058422467942592e+02,-2.865085024743727899e+02,-3.067185736790780766e+02
5.649369748123025253e-02,2.540487493561463594e+01,1.950502459733400684e+01,7.051855705657477991e+00,-2.836391910667450702e+02,-2.865877511522226087e+02,-3.064912438722975025e+02
5.754399373371569398e-02,2.555891056336485434e+01,1.965779631458977406e+01,7.176304707103998481e+00,-2.837768396364107844e+02,-2.866722494932050154e+02,-3.062719209632721800e+02
5.861381645140287255e-02,2.571276196334838460e+01,1.981042893176800135e+01,7.301441928358306299e+00,-2.839188176169836311e+02,-2.867620118071608886e+02,-3.060606836010692291e+02
5.970352865838369355e-02,2.586642160905021370e+01,1.996291333145772029e+01,7.427239848704438430e+00,-2.840651551968066428e+02,-2.868570531071646883e+02,-3.058576064221002753e+02
6.081350012787179599e-02,2.601988177255591239e+01,2.011524024949595457e+01,7.553670863087511123e+00,-2.842158830569933912e+02,-2.869573890772949198e+02,-3.056627601329655022e+02
6.194410750767814777e-02,2.617313451826413484e+01,2.026740026690466578e+01,7.680707297216172513e+00,-2.843710323351246529e+02,-2.870630360381736068e+02,-3.054762115953396915e+02
6.309573444801933051e-02,2.632617169659729228e+01,2.041938380187637136e+01,7.808321421339603496e+00,-2.845306345869458369e+02,-2.871740109102178735e+02,-3.052980239122318267e+02
6.426877173170197910e-02,2.647898493771953810e+01,2.057118110181644610e+01,7.936485462718593453e+00,-2.846947217459889998e+02,-2.872903311745433825e+02,-3.051282565149702464e+02
6.546361740672750062e-02,2.663156564527191250e+01,2.072278223545134779e+01,8.065171616816229516e+00,-2.848633260810414640e+02,-2.874120148314598850e+02,-3.049669652502888084e+02
6.668067692136221691e-02,2.678390499013581305e+01,2.087417708501272173e+01,8.194352057239328246e+00,-2.850364801513836142e+02,-2.875390803564961857e+02,-3.048142024669140824e+02
6.792036326171846383e-02,2.693599390423668893e+01,2.102535533850843308e+01,8.323998944466902472e+00,-2.852142167597185107e+02,-2.876715466538922215e+02,-3.046700171010821236e+02
6.918309709189363055e-02,2.708782307440096560e+01,2.117630648209260613e+01,8.454084433406750421e+00,-2.853965689027151029e+02,-2.878094330074959544e+02,-3.045344547604379386e+02
7.046930689671467019e-02,2.723938293628057394e+01,2.132701979254792946e+01,8.584580679825746685e+00,-2.855835697190904057e+02,-2.879527590290004468e+02,-3.044075578058017868e+02
7.177942912713615453e-02,2.739066366836013700e+01,2.147748432989438072e+01,8.715459845703145803e+00,-2.857752524351521970e+02,-2.881015446034601837e+02,-3.042893654303152289e+02
7.311390834834172181e-02,2.754165518606360408e+01,2.162768893014007077e+01,8.846694103560194478e+00,-2.859716503077313519e+02,-2.882558098320242266e+02,-3.041799137355087623e+02
7.447319739059889143e-02,2.769234713597786168e+01,2.177762219819083001e+01,8.978255639822387835e+00,-2.861727965644302571e+02,-2.884155749718258335e+02,-3.040792358038653447e+02
7.585775750291835762e-02,2.784272889021249142e+01,2.192727250093660984e+01,9.110116657273744423e+00,-2.863787243411185841e+02,-2.885808603729709603e+02,-3.039873617674818433e+02
7.726805850957021993e-02,2.799278954091597882e+01,2.207662796053405430e+01,9.242249376665132132e+00,-2.865894666166101956e+02,-2.887516864125694838e+02,-3.039043188724631364e+02
7.870457896950984467e-02,2.814251789496999479e+01,2.222567644790582975e+01,9.374626037541007761e+00,-2.868050561444591722e+02,-2.889280734257567360e+02,-3.038301315387144541e+02
8.016780633876789686e-02,2.829190246888492766e+01,2.237440557647891737e+01,9.507218898350993541e+00,-2.870255253818172037e+02,-2.891100416336573744e+02,-3.037648214148259171e+02
8.165823713585922128e-02,2.844093148392100900e+01,2.252280269618523079e+01,9.640000235914568449e+00,-2.872509064152990277e+02,-2.892976110682475905e+02,-3.037084074277753984e+02
8.317637711026708291e-02,2.858959286146093959e+01,2.267085488774947422e+01,9.772942344308667373e+00,-2.874812308838102695e+02,-2.894908014940762655e+02,-3.036609058272073867e+02
8.472274141405965187e-02,2.873787421866137137e+01,2.281854895729065547e+01,9.906017533249386275e+00,-2.877165298982958461e+02,-2.896896323268148308e+02,-3.036223302240705948e+02
8.629785477669701943e-02,2.888576286441186625e+01,2.296587143126489394e+01,1.003919812604012129e+01,-2.879568339583789793e+02,-2.898941225486089479e+02,-3.035926916234335522e+02
8.790225168308841985e-02,2.903324579563161834e+01,2.311280855177891169e+01,1.017245645715939339e+01,-2.882021728658634174e+02,-2.901042906202160339e+02,-3.035719984513219174e+02
8.953647655495937385e-02,2.918030969393546670e+01,2.325934627230473239e+01,1.030576486956240601e+01,-2.884525756350875554e+02,-2.903201543899199919e+02,-3.035602565754520015e+02
9.120108393559096804e-02,2.932694092270216402e+01,2.340547025382782209e+01,1.043909571177099593e+01,-2.887080704001232903e+02,-2.905417309992255355e+02,-3.035574693197659144e+02
9.289663867799362318e-02,2.947312552457935197e+01,2.355116586146195701e+01,1.057242133482697533e+01,-2.889686843188283660e+02,-2.907690367853446674e+02,-3.035636374727005773e+02
9.462371613657930003e-02,2.961884921946082727e+01,2.369641816156583047e+01,1.070571408918430834e+01,-2.892344434737702841e+02,-2.910020871805004390e+02,-3.035787592891528561e+02
9.638290236239706321e-02,2.976409740297311401e+01,2.384121191939728135e+01,1.083894632161549865e+01,-2.895053727700562831e+02,-2.912408966080860750e+02,-3.036028304861316656e+02
9.817479430199843593e-02,2.990885514550951996e+01,2.398553159734268192e+01,1.097209037220767769e+01,-2.897814958301152046e+02,-2.914854783757322139e+02,-3.036358442321176767e+02
1.000000000000000056e-01,3.005310719185080970e+01,2.412936135375972668e+01,1.110511857152363646e+01,-2.900628348854953629e+02,-2.917358445653500212e+02,-3.036777911301785480e+02
1.018591388054116975e-01,3.019683796141293186e+01,2.427268504247317082e+01,1.123800323800271350e+01,-2.903494106657591942e+02,-2.919920059202344760e+02,-3.037286591949178955e+02
1.037528415818012584e-01,3.034003154916281630e+01,2.441548621296387722e+01,1.137071667567600208e+01,-2.906412422845717742e+02,-2.922539717293311696e+02,-3.037884338233649828e+02
1.056817509213658496e-01,3.048267172724425578e+01,2.455774811129235502e+01,1.150323117226959724e+01,-2.909383471231013232e+02,-2.925217497087869560e+02,-3.038570977599413823e+02
1.076465213629834994e-01,3.062474194735622035e+01,2.469945368179838852e+01,1.163551899776886600e+01,-2.912407407108701136e+02,-2.927953458809270728e+02,-3.039346310556700814e+02
1.096478196143185202e-01,3.076622534392667419e+01,2.484058556961902298e+01,1.176755240351559983e+01,-2.915484366042140891e+02,-2.930747644508202256e+02,-3.040210110218225736e+02
1.116863247780561230e-01,3.090710473812483983e+01,2.498112612406737298e+01,1.189930362190883706e+01,-2.918614462625342867e+02,-2.933600076806185939e+02,-3.041162121782290342e+02
1.137627285823430978e-01,3.104736264275511815e+01,2.512105740291438138e+01,1.203074486677848043e+01,-2.921797789225453243e+02,-2.936510757618801222e+02,-3.042202061965070357e+02
1.158777356155126226e-01,3.118698126807538884e+01,2.526036117761597666e+01,1.216184833449941749e+01,-2.925034414707508859e+02,-2.939479666861068949e+02,-3.043329618384949526e+02
1.180320635651729844e-01,3.132594252858210382e+01,2.539901893952710310e+01,1.229258620591178897e+01,-2.928324383144031344e+02,-2.942506761137573221e+02,-3.044544448902053091e+02
1.202264434617413141e-01,3.146422805080352347e+01,2.553701190714340896e+01,1.242293064911090816e+01,-2.931667712512268054e+02,-2.945591972420186266e+02,-3.045846180916454387e+02
1.224616199265049082e-01,3.160181918214154706e+01,2.567432103441047531e+01,1.255285382316787590e+01,-2.935064393382187404e+02,-2.948735206716484640e+02,-3.047234410628833530e+02
1.247383514242943192e-01,3.173869700080089018e+01,2.581092702013864937e+01,1.268232788283923185e+01,-2.938514387598584676e+02,-2.951936342732273033e+02,-3.048708702267654189e+02
1.270574105208542026e-01,3.187484232684280272e+01,2.594681031856012510e+01,1.281132498432081768e+01,-2.942017626960947609e+02,-2.955195230531859920e+02,-3.050268587287261539e+02
1.294195841449986284e-01,3.201023573439795911e+01,2.608195115106229878e+01,1.293981729209763465e+01,-2.945574011905024463e+02,-2.958511690200056705e+02,-3.051913563541576195e+02
1.318256738556407293e-01,3.214485756507088610e+01,2.621632951912924980e+01,1.306777698693777801e+01,-2.949183410190281620e+02,-2.961885510510105632e+02,-3.053643094438369303e+02
1.342764961137864199e-01,3.227868794256507101e+01,2.634992521851986425e+01,1.319517627507424784e+01,-2.952845655597769223e+02,-2.965316447602063477e+02,-3.055456608079402940e+02
1.367728825595849462e-01,3.241170678855436194e+01,2.648271785470785744e+01,1.332198739861400760e+01,-2.956560546643148086e+02,-2.968804223676418133e+02,-3.057353496391978069e+02
1.393156802945303419e-01,3.254389383982274353e+01,2.661468685960495151e+01,1.344818264720870893e+01,-2.960327845309914210e+02,-2.972348525707985800e+02,-3.059333114257744910e+02
1.419057521689092716e-01,3.267522866668969073e+01,2.674581150958429276e+01,1.357373437101611735e+01,-2.964147275808131212e+02,-2.975949004185402487e+02,-3.061394778644836379e+02
1.445439770745927111e-01,3.280569069273385452e+01,2.687607094481612080e+01,1.369861499497555712e+01,-2.968018523364196426e+02,-2.979605271881765134e+02,-3.063537767749692193e+02
1.472312502432718551e-01,3.293525921582252636e+01,2.700544418992270934e+01,1.382279703441451169e+01,-2.971941233047435844e+02,-2.983316902662215853e+02,-3.065761320155103249e+02
1.499684835502373137e-01,3.306391343044835907e+01,2.713391017595372290e+01,1.394625311199690465e+01,-2.975915008639495909e+02,-2.987083430334442937e+02,-3.068064634011265071e+02
1.527566058238072344e-01,3.319163245136892471e+01,2.726144776367694789e+01,1.406895597601668868e+01,-2.979939411552722390e+02,-2.990904347548319606e+02,-3.070446866246775244e+02
1.555965631605074340e-01,3.331839533853784019e+01,2.738803576817289454e+01,1.419087852003283068e+01,-2.984013959803863258e+02,-2.994779104750996339e+02,-3.072907131816671154e+02
1.584893192461113431e-01,3.344418112330928494e+01,2.751365298471448995e+01,1.431199380383413455e+01,-2.988138127049562627e+02,-2.998707109203951404e+02,-3.075444502994726008e+02
1.614358556826486213e-01,3.356896883589018188e+01,2.763827821590595235e+01,1.443227507571426571e+01,-2.992311341690231643e+02,-3.002687724068568969e+02,-3.078058008717319467e+02
1.644371723214931580e-01,3.369273753400668170e+01,2.776189030004680802e+01,1.455169579602870655e+01,-2.996532986048933367e+02,-3.006720267566896609e+02,-3.080746633986212828e+02
1.674942876026437322e-01,3.381546633274322033e+01,2.788446814067927804e+01,1.467022966199690970e+01,-3.000802395631929471e+02,-3.010804012224248254e+02,-3.083509319337615011e+02
1.706082389003123478e-01,3.393713443550424813e+01,2.800599073726853661e+01,1.478785063370379049e+01,-3.005118858477555932e+02,-3.014938184200297542e+02,-3.086344960384841443e+02
1.737800828749375415e-01,3.405772116604005362e+01,2.812643721695694410e+01,1.490453296124556459e+01,-3.009481614599988575e+02,-3.019121962715256586e+02,-3.089252407441821333e+02
1.770108958317421211e-01,3.417720600146915899e+01,2.824578686732451160e+01,1.502025121295580412e+01,-3.013889855534355888e+02,-3.023354479577582197e+02,-3.092230465234542862e+02
1.803017740859569062e-01,3.429556860622111003e+01,2.836401917007892237e+01,1.513498030463799005e+01,-3.018342723989508158e+02,-3.027634818819526572e+02,-3.095277892707367755e+02
1.836538343348346480e-01,3.441278886681439531e+01,2.848111383558970644e+01,1.524869552972179143e+01,-3.022839313614491061e+02,-3.031962016446593680e+02,-3.098393402930876732e+02
1.870682140365800550e-01,3.452884692737545436e+01,2.859705083817205207e+01,1.536137259025082535e+01,-3.027378668884533113e+02,-3.036335060306695937e+02,-3.101575663117632757e+02
1.905460717963247397e-01,3.464372322579603747e+01,2.871181045201728210e+01,1.547298762860070553e+01,-3.031959785111981205e+02,-3.040752890084467026e+02,-3.104823294751880098e+02
1.940885877592778419e-01,3.475739853041747551e+01,2.882537328765840812e+01,1.558351725981725622e+01,-3.036581608587262053e+02,-3.045214397425792185e+02,-3.108134873838779413e+02
1.976969640111860826e-01,3.486985397712268764e+01,2.893772032885096124e+01,1.569293860445638344e+01,-3.041243036854453408e+02,-3.049718426197160852e+02,-3.111508931278320915e+02
2.013724249862388627e-01,3.498107110670837017e+01,2.904883296974171358e+01,1.580122932179895301e+01,-3.045942919125581057e+02,-3.054263772883940646e+02,-3.114943953368513121e+02
2.051162178825565729e-01,3.509103190240316650e+01,2.915869305219046836e+01,1.590836764330658681e+01,-3.050680056837142615e+02,-3.058849187131089593e+02,-3.118438382441864860e+02
2.089296130854039757e-01,3.519971882739061186e+01,2.926728290310362013e+01,1.601433240617735976e+01,-3.055453204351786667e+02,-3.063473372429227197e+02,-3.121990617638541607e+02
2.128139045982712363e-01,3.530711486218973505e+01,2.937458537163216832e+01,1.611910308685426685e+01,-3.060261069807356193e+02,-3.068134986948275014e+02,-3.125599015818864359e+02
2.167704104819695166e-01,3.541320354174128937e+01,2.948058386608178694e+01,1.622265983433396030e+01,-3.065102316114815721e+02,-3.072832644520192389e+02,-3.129261892617111585e+02
2.208004733018900378e-01,3.551796899204310876e+01,2.958526239037831829e+01,1.632498350311888657e+01,-3.069975562105800577e+02,-3.077564915771536107e+02,-3.132977523637775903e+02
2.249054605835781873e-01,3.562139596617487314e+01,2.968860557992872273e+01,1.642605568565242891e+01,-3.074879383829718336e+02,-3.082330329405787097e+02,-3.136744145794608016e+02
2.290867652767773488e-01,3.572346987955053521e+01,2.979059873671552694e+01,1.652585874407449751e+01,-3.079812315999517409e+02,-3.087127373634543233e+02,-3.140559958791939152e+02
2.333458062281003331e-01,3.582417684423527504e+01,2.989122786346143457e+01,1.662437584113347810e+01,-3.084772853584339600e+02,-3.091954497755809257e+02,-3.144423126746880257e+02
2.376840286624877230e-01,3.592350370216421140e+01,2.999047969670112934e+01,1.672159097009081918e+01,-3.089759453546424766e+02,-3.096810113876740616e+02,-3.148331779950104305e+02
2.421029046736178914e-01,3.602143805710128532e+01,3.008834173859849770e+01,1.681748898345539445e+01,-3.094770536718719995e+02,-3.101692598777297007e+02,-3.152284016762007468e+02
2.466039337234340045e-01,3.611796830517937451e+01,3.018480228735012005e+01,1.691205562038753740e+01,-3.099804489818753837e+02,-3.106600295910369596e+02,-3.156277905640125141e+02
2.511886431509580686e-01,3.621308366386655564e+01,3.027985046601981622e+01,1.700527753261631148e+01,-3.104859667593454446e+02,-3.111531517533051101e+02,-3.160311487292798915e+02
2.558585886905645479e-01,3.630677419920863258e+01,3.037347624965414994e+01,1.709714230871871266e+01,-3.109934395088698693e+02,-3.116484546962843183e+02,-3.164382776953152643e+02
2.606153549998895258e-01,3.639903085120440096e+01,3.046567049053524556e+01,1.718763849661590726e+01,-3.115026970036539637e+02,-3.121457640951736039e+02,-3.168489766766625735e+02
2.654605561975538763e-01,3.648984545717808459e+01,3.055642494143506838e+01,1.727675562414923505e+01,-3.120135665352232195e+02,-3.126449032170290820e+02,-3.172630428284431900e+02
2.703958364108843271e-01,3.657921077302192003e+01,3.064573227674419087e+01,1.736448421760763239e+01,-3.125258731732392334e+02,-3.131456931793058516e+02,-3.176802715054551527e+02
2.754228703338166273e-01,3.666712049219228930e+01,3.073358611135812168e+01,1.745081581808808835e+01,-3.130394400344925998e+02,-3.136479532175950453e+02,-3.181004565301098523e+02
2.805433637951713077e-01,3.675356926235374999e+01,3.081998101721547556e+01,1.753574299558202654e+01,-3.135540885600646561e+02,-3.141515009615506528e+02,-3.185233904682251591e+02
2.857590543374946557e-01,3.683855269957764733e+01,3.090491253739450883e+01,1.761925936069242482e+01,-3.140696387995940881e+02,-3.146561527179401878e+02,-3.189488649116296415e+02
2.910717118066605269e-01,3.692206740001476106e+01,3.098837719768737031e+01,1.770135957389971537e+01,-3.145859097015294310e+02,-3.151617237596993277e+02,-3.193766707664807427e+02
2.964831389524342220e-01,3.700411094897555131e+01,3.107037251558545066e+01,1.778203935230818544e+01,-3.151027194082030292e+02,-3.156680286198284193e+02,-3.198065985461515766e+02
3.019951720402015982e-01,3.708468192736584967e+01,3.115089700662361238e+01,1.786129547381909788e+01,-3.156198855545272295e+02,-3.161748813889290659e+02,-3.202384386675062160e+02
3.076096814740708063e-01,3.716377991544084125e+01,3.122995018804596867e+01,1.793912577869167890e+01,-3.161372255690841371e+02,-3.166820960151533768e+02,-3.206719817493528808e+02
3.133285724315585385e-01,3.724140549385555232e+01,3.130753257977135462e+01,1.801552916846852881e+01,-3.166545569763648587e+02,-3.171894866053199280e+02,-3.211070189118448752e+02
3.191537855100761711e-01,3.731756024200563360e+01,3.138364570265208897e+01,1.809050560225750459e+01,-3.171716976989010846e+02,-3.176968677259421270e+02,-3.215433420755922498e+02
3.250872973854344039e-01,3.739224673366764051e+01,3.145829207403527050e+01,1.816405609037771285e+01,-3.176884663580385677e+02,-3.182040547029149025e+02,-3.219807442592451139e+02
3.311311214825911065e-01,3.746546852996389276e+01,3.153147520065140341e+01,1.823618268539292586e+01,-3.182046825721074015e+02,-3.187108639186159849e+02,-3.224190198743189057e+02
3.372873086588689118e-01,3.753723016969183135e+01,3.160319956887033399e+01,1.830688847057079727e+01,-3.187201672507673607e+02,-3.192171131052006672e+02,-3.228579650160543224e+02
3.435579478998746494e-01,3.760753715707311073e+01,3.167347063237948390e+01,1.837617754582135632e+01,-3.192347428843344801e+02,-3.197226216328947430e+02,-3.232973777491287137e+02
3.499451670283573179e-01,3.767639594699159034e+01,3.174229479735357273e+01,1.844405501118251323e+01,-3.197482338269344950e+02,-3.202272107921305064e+02,-3.237370583870777523e+02
3.564511334262442932e-01,3.774381392780333044e+01,3.180967940519883541e+01,1.851052694793395759e+01,-3.202604665723733888e+02,-3.207307040684182198e+02,-3.241768097643292208e+02
3.630780547701014105e-01,3.780979940181455135e+01,3.187563271296748013e+01,1.857560039743388103e+01,-3.207712700216717963e+02,-3.212329274088972397e+02,-3.246164374998052722e+02
3.698281797802662751e-01,3.787436156353527394e+01,3.194016387155017611e+01,1.863928333778472890e+01,-3.212804757412712888e+02,-3.217337094795756229e+02,-3.250557502511117605e+02
3.767037989839089884e-01,3.793751047582750857e+01,3.200328290176529578e+01,1.870158465844534135e+01,-3.217879182109880958e+02,-3.222328819123329708e+02,-3.254945599583996341e+02
3.837072454922788589e-01,3.799925704407667837e+01,3.206500066847344499e+01,1.876251413291659986e+01,-3.222934350608634304e+02,-3.227302795408371026e+02,-3.259326820770566542e+02
3.908408957924021099e-01,3.805961298852348307e+01,3.212532885285455819e+01,1.882208238963646707e+01,-3.227968672961412153e+02,-3.232257406246019968e+02,-3.263699357984677363e+02
3.981071705534973137e-01,3.811859081490113965e+01,3.218427992299228890e+01,1.888030088122775041e+01,-3.232980595096817069e+02,-3.237191070604995957e+02,-3.268061442581619076e+02
4.055085354483839444e-01,3.817620378352876997e+01,3.224186710291651536e+01,1.893718185224818740e+01,-3.237968600812113209e+02,-3.242102245811206558e+02,-3.272411347307513552e+02
4.130475019901613809e-01,3.823246587701705579e+01,3.229810434025982602e+01,1.899273830559729959e+01,-3.242931213628913270e+02,-3.246989429394716922e+02,-3.276747388111546115e+02
4.207266283844441901e-01,3.828739176674547906e+01,3.235300627268748741e+01,1.904698396773826730e+01,-3.247866998507822700e+02,-3.251851160795811211e+02,-3.281067925816851698e+02
4.285485203974396251e-01,3.834099677827295949e+01,3.240658819326247908e+01,1.909993325289520527e+01,-3.252774563418670368e+02,-3.256686022926792816e+02,-3.285371367646754379e+02
4.365158322401661573e-01,3.839329685584501561e+01,3.245886601490858681e+01,1.915160122638763696e+01,-3.257652560763862084e+02,-3.261492643587058069e+02,-3.289656168603965511e+02
4.446312674691088040e-01,3.844430852615986538e+01,3.250985623413424008e+01,1.920200356726341795e+01,-3.262499688653285830e+02,-3.266269696729851262e+02,-3.293920832701190307e+02
4.528975799036208949e-01,3.849404886155522831e+01,3.255957589417833020e+01,1.925115653039060604e+01,-3.267314692030023480e+02,-3.271015903579975657e+02,-3.298163914042490319e+02
4.613175745603795286e-01,3.854253544277460719e+01,3.260804254773712785e+01,1.929907690816583354e+01,-3.272096363646991790e+02,-3.275730033602571893e+02,-3.302384017755530863e+02
4.698941086052153548e-01,3.858978632146860122e+01,3.265527421942772435e+01,1.934578199199368953e+01,-3.276843544895401124e+02,-3.280410905323847146e+02,-3.306579800775679701e+02
4.786300923226382564e-01,3.863581998258251815e+01,3.270128936813888032e+01,1.939128953368705766e+01,-3.281555126486706513e+02,-3.285057387005429064e+02,-3.310749972483642978e+02
4.875284901033862806e-01,3.868065530677581876e+01,3.274610684941529115e+01,1.943561770693302293e+01,-3.286230048990408363e+02,-3.289668397174713732e+02,-3.314893295199057661e+02
4.965923214503361049e-01,3.872431153301330653e+01,3.278974587801472751e+01,1.947878506896306305e+01,-3.290867303230757557e+02,-3.294242905014225471e+02,-3.319008584533114572e+02
5.058246620031140450e-01,3.876680822146087735e+01,3.283222599077105741e+01,1.952081052255938332e+01,-3.295465930545998958e+02,-3.298779930613667375e+02,-3.323094709603883530e+02
5.152286445817564342e-01,3.880816521681148856e+01,3.287356700988848957e+01,1.956171327852190345e+01,-3.300025022914363717e+02,-3.303278545088828082e+02,-3.327150593118583970e+02
5.248074602497725394e-01,3.884840261215889257e+01,3.291378900678496677e+01,1.960151281871266704e+01,-3.304543722951514724e+02,-3.307737870572079828e+02,-3.331175211327534385e+02
5.345643593969716667e-01,3.888754071352877872e+01,3.295291226659389849e+01,1.964022885978612720e+01,-3.309021223784596941e+02,-3.312157080079586535e+02,-3.335167593854943107e+02
5.445026528424211643e-01,3.892560000516808572e+01,3.299095725342513674e+01,1.967788131770529247e+01,-3.313456768808410402e+02,-3.316535397260774403e+02,-3.339126823412111662e+02
5.546257129579107437e-01,3.896260111568471984e+01,3.302794457647745219e+01,1.971449027313498448e+01,-3.317849651329568132e+02,-3.320872096035889740e+02,-3.343052035398903854e+02
5.649369748123025392e-01,3.899856478512079860e+01,3.306389495708548765e+01,1.975007593779452719e+01,-3.322199214104763882e+02,-3.325166500127792233e+02,-3.346942417399643546e+02
5.754399373371569260e-01,3.903351183303396965e+01,3.309882919677567514e+01,1.978465862184341262e+01,-3.326504848779478039e+02,-3.329417982494290413e+02,-3.350797208579785433e+02
5.861381645140287810e-01,3.906746312765206852e+01,3.313276814639649359e+01,1.981825870236455245e+01,-3.330765995233611534e+02,-3.333625964667532457e+02,-3.354615698989863404e+02
5.970352865838368661e-01,3.910043955615792299e+01,3.316573267637972577e+01,1.985089659300102127e+01,-3.334982140840654097e+02,-3.337789916007025681e+02,-3.358397228783337596e+02
6.081350012787178905e-01,3.913246199615237941e+01,3.319774364818077572e+01,1.988259271479361701e+01,-3.339152819647032402e+02,-3.341909352872958721e+02,-3.362141187355002785e+02
6.194410750767814777e-01,3.916355128833537691e+01,3.322882188693783689e+01,1.991336746825822956e+01,-3.343277611478309836e+02,-3.345983837726470256e+02,-3.365847012406638896e+02
6.309573444801933606e-01,3.919372821043661759e+01,3.325898815538150188e+01,1.994324120673397971e+01,-3.347356140978865255e+02,-3.350012978163512116e+02,-3.369514188946548643e+02
6.426877173170196800e-01,3.922301345241997694e+01,3.328826312901880868e+01,1.997223421102544449e+01,-3.351388076591615572e+02,-3.353996425888851718e+02,-3.373142248229549409e+02
6.546361740672750340e-01,3.925142759297811068e+01,3.331666737260829336e+01,2.000036666535477536e+01,-3.355373129484235619e+02,-3.357933875636675793e+02,-3.376730766643883044e+02
6.668067692136222524e-01,3.927899107732693551e+01,3.334422131793553490e+01,2.002765863463270435e+01,-3.359311052428183189e+02,-3.361825064044106739e+02,-3.380279364551377057e+02
6.792036326171846383e-01,3.930572419630307479e+01,3.337094524289241093e+01,2.005413004305093949e+01,-3.363201638636686539e+02,-3.365669768483761004e+02,-3.383787705086984943e+02
6.918309709189366385e-01,3.933164706676127764e+01,3.339685925185697357e+01,2.007980065399219782e+01,-3.367044720567621994e+02,-3.369467805861319789e+02,-3.387255492923682141e+02
7.046930689671468961e-01,3.935677961326297236e+01,3.342198325736508480e+01,2.010469005124864594e+01,-3.370840168697042714e+02,-3.373219031383820834e+02,-3.390682473008452575e+02
7.177942912713618506e-01,3.938114155104238279e+01,3.344633696306019743e+01,2.012881762153435972e+01,-3.374587890268832666e+02,-3.376923337304185679e+02,-3.394068429274857408e+02
7.311390834834176067e-01,3.940475237023130717e+01,3.346993984790248788e+01,2.015220253827250474e+01,-3.378287828025751196e+02,-3.380580651647223362e+02,-3.397413183337458236e+02
7.447319739059892196e-01,3.942763132131992876e+01,3.349281115161442557e+01,2.017486374663391757e+01,-3.381939958926851091e+02,-3.384190936922094579e+02,-3.400716593173066826e+02
7.585775750291839925e-01,3.944979740182679961e+01,3.351496986133622613e+01,2.019681994979989526e+01,-3.385544292855981894e+02,-3.387754188825958863e+02,-3.403978551793555880e+02
7.726805850957025879e-01,3.947126934414808375e+01,3.353643469946098321e+01,2.021808959641851899e+01,-3.389100871325828166e+02,-3.391270434943231749e+02,-3.407198985914662330e+02
7.870457896950989740e-01,3.949206560455293413e+01,3.355722411261650961e+01,2.023869086922109872e+01,-3.392609766181634541e+02,-3.394739733444623653e+02,-3.410377854624947531e+02
8.016780633876793294e-01,3.951220435328953329e+01,3.357735626175827548e+01,2.025864167476265010e+01,-3.396071078308489746e+02,-3.398162171789821855e+02,-3.413515148058792761e+02
8.165823713585927957e-01,3.953170346576408178e+01,3.359684901333578466e+01,2.027795963424828329e+01,-3.399484936345780852e+02,-3.401537865437413757e+02,-3.416610886077019700e+02
8.317637711026708569e-01,3.955058051475322145e+01,3.361571993149289028e+01,2.029666207540558531e+01,-3.402851495412109557e+02,-3.404866956565372220e+02,-3.419665116958452700e+02
8.472274141405963244e-01,3.956885276360920045e+01,3.363398627126121454e+01,2.031476602536172749e+01,-3.406170935843732082e+02,-3.408149612805126480e+02,-3.422677916105470786e+02
8.629785477669702498e-01,3.958653716041561665e+01,3.365166497270463708e+01,2.033228820448288587e+01,-3.409443461949285279e+02,-3.411386025992007376e+02,-3.425649384766306866e+02
8.790225168308842818e-01,3.960365033305124172e+01,3.366877265597219093e+01,2.034924502113291211e+01,-3.412669300783305175e+02,-3.414576410934561750e+02,-3.428579648776614022e+02
8.953647655495936553e-01,3.962020858511851884e+01,3.368532561721614371e+01,2.036565256730759188e+01,-3.415848700940802019e+02,-3.417721004204996120e+02,-3.431468857322544181e+02
9.120108393559096527e-01,3.963622789269354030e+01,3.370133982533180728e+01,2.038152661510081032e+01,-3.418981931374898409e+02,-3.420820062952757326e+02,-3.434317181727354864e+02
9.289663867799362595e-01,3.965172390185387741e+01,3.371683091947566879e+01,2.039688261395872360e+01,-3.422069280239310842e+02,-3.423873863743032189e+02,-3.437124814263318626e+02
9.462371613657929448e-01,3.966671192694134618e+01,3.373181420731873459e+01,2.041173568867853305e+01,-3.425111053757221384e+02,-3.426882701421710067e+02,-3.439891966990479659e+02
9.638290236239704933e-01,3.968120694951677052e+01,3.374630466399227657e+01,2.042610063810877108e+01,-3.428107575117889496e+02,-3.429846888008150358e+02,-3.442618870623601879e+02
9.817479430199843593e-01,3.969522361796479260e+01,3.376031693168388870e+01,2.043999193450864738e+01,-3.431059183402130088e+02,-3.432766751616895817e+02,-3.445305773428439124e+02
1.000000000000000000e+00,3.970877624770727010e+01,3.377386531984251405e+01,2.045342372352473603e+01,-3.433966232537620158e+02,-3.435642635409267314e+02,-3.447952940148269363e+02
1.018591388054116864e+00,3.972187882198495146e+01,3.378696380595196302e+01,2.046640982474442438e+01,-3.436829090284788890e+02,-3.438474896575625053e+02,-3.450560650961469946e+02
1.037528415818012695e+00,3.973454499316779476e+01,3.379962603683347311e+01,2.047896373278615201e+01,-3.439648137253899449e+02,-3.441263905348876619e+02,-3.453129200470718274e+02
1.056817509213658468e+00,3.974678808455586676e+01,3.381186533043906195e+01,2.049109861888808126e+01,-3.442423765953777774e+02,-3.444010044049699673e+02,-3.455658896724269766e+02
1.076465213629834938e+00,3.975862109263347577e+01,3.382369467809839136e+01,2.050282733295758675e+01,-3.445156379872472598e+02,-3.446713706163759525e+02,-3.458150060269608161e+02
1.096478196143185091e+00,3.977005668974086205e+01,3.383512674718348023e+01,2.051416240604564933e+01,-3.447846392590030291e+02,-3.449375295451104648e+02,-3.460603023239635831e+02
1.116863247780561119e+00,3.978110722712882819e+01,3.384617388415659889e+01,2.052511605321120669e+01,-3.450494226923430006e+02,-3.451995225087781591e+02,-3.463018128471439923e+02
1.137627285823431089e+00,3.979178473836319085e+01,3.385684811796818394e+01,2.053570017674217496e+01,-3.453100314103606934e+02,-3.454573916839598269e+02,-3.465395728657576342e+02
1.158777356155126226e+00,3.980210094304717927e+01,3.386716116377304076e+01,2.054592636970099306e+01,-3.455665092984401099e+02,-3.457111800267874173e+02,-3.467736185529687987e+02
1.180320635651729733e+00,3.981206725083164599e+01,3.387712442693445780e+01,2.055580591976423932e+01,-3.458189009283172481e+02,-3.459609311966913765e+02,-3.470039869074201420e+02
1.202264434617413169e+00,3.982169476568383004e+01,3.388674900728717887e+01,2.056534981332702472e+01,-3.460672514852746531e+02,-3.462066894832863113e+02,-3.472307156779753541e+02
1.224616199265048833e+00,3.983099429038743722e+01,3.389604570363186298e+01,2.057456873984449430e+01,-3.463116066984255781e+02,-3.464484997363526304e+02,-3.474538432915922499e+02
1.247383514242943248e+00,3.983997633124766935e+01,3.390502501843474192e+01,2.058347309638405420e+01,-3.465520127740418275e+02,-3.466864072988666408e+02,-3.476734087842785925e+02
1.270574105208541971e+00,3.984865110297671720e+01,3.391369716270786938e+01,2.059207299236345179e+01,-3.467885163318694595e+02,-3.469204579430243598e+02,-3.478894517350749993e+02
1.294195841449986339e+00,3.985702853373613408e+01,3.392207206104647810e+01,2.060037825445110116e+01,-3.470211643443742560e+02,-3.471506978092002100e+02,-3.481020122030062112e+02
1.318256738556407237e+00,3.986511827031427657e+01,3.393015935680158179e+01,2.060839843160654183e+01,-3.472500040788531805e+02,-3.473771733477765906e+02,-3.483111306669363785e+02
1.342764961137864255e+00,3.987292968341801469e+01,3.393796841736705971e+01,2.061614280024008394e+01,-3.474750830423444086e+02,-3.475999312637779894e+02,-3.485168479682606630e+02
1.367728825595849518e+00,3.988047187305935637e+01,3.394550833956171232e+01,2.062362036947211408e+01,-3.476964489292663529e+02,-3.478190184642381269e+02,-3.487192052563627840e+02
1.393156802945303863e+00,3.988775367401882477e+01,3.395278795508836112e+01,2.063083988647372280e+01,-3.479141495717118460e+02,-3.480344820082279398e+02,-3.489182439367642132e+02
1.419057521689092605e+00,3.989478366136864906e+01,3.395981583605285437e+01,2.063780984187157941e+01,-3.481282328923232967e+02,-3.482463690594687478e+02,-3.491140056218910672e+02
1.445439770745927888e+00,3.990157015603996626e+01,3.396660030052721879e+01,2.064453847520104190e+01,-3.483387468596719714e+02,-3.484547268414548853e+02,-3.493065320843800237e+02
1.472312502432719494e+00,3.990812123041938264e+01,3.397314941814238409e+01,2.065103378039272997e+01,-3.485457394460638056e+02,-3.486596025950071862e+02,-3.494958652128462973e+02
1.499684835502373748e+00,3.991444471396133764e+01,3.397947101569675965e+01,2.065730351127888298e+01,-3.487492585876934186e+02,-3.488610435381789898e+02,-3.496820469700339800e+02
1.527566058238073232e+00,3.992054819880367234e+01,3.398557268276821475e+01,2.066335518710669561e+01,-3.489493521470673159e+02,-3.490590968284366795e+02,-3.498651193532705861e+02
1.555965631605074950e+00,3.992643904537483479e+01,3.399146177731783069e+01,2.066919609804699220e+01,-3.491460678776173268e+02,-3.492538095270341501e+02,-3.500451243571447435e+02
1.584893192461114264e+00,3.993212438798212816e+01,3.399714543127478095e+01,2.067483331068749663e+01,-3.493394533904264563e+02,-3.494452285655040669e+02,-3.502221039383293828e+02
1.614358556826487101e+00,3.993761114037125282e+01,3.400263055609264740e+01,2.068027367350079615e+01,-3.495295561229876284e+02,-3.496334007141865641e+02,-3.503960999824710143e+02
1.644371723214932413e+00,3.994290600124824664e+01,3.400792384826825554e+01,2.068552382227799669e+01,-3.497164233099189801e+02,-3.498183725527188130e+02,-3.505671542730675583e+02
1.674942876026438210e+00,3.994801545975572310e+01,3.401303179481489991e+01,2.069059018551986284e+01,-3.499001019555591370e+02,-3.500001904424078134e+02,-3.507353084622570805e+02
1.706082389003124256e+00,3.995294580089612424e+01,3.401796067868273354e+01,2.069547898977806000e+01,-3.500806388083658476e+02,-3.501789005004119417e+02,-3.509006040434427405e+02
1.737800828749376247e+00,3.995770311089537330e+01,3.402271658411960686e+01,2.070019626493968090e+01,-3.502580803370457829e+02,-3.503545485756563380e+02,-3.510630823256780673e+02
1.770108958317422099e+00,3.996229328250095847e+01,3.402730540196647979e+01,2.070474784944913083e+01,-3.504324727083413222e+02,-3.505271802264099392e+02,-3.512227844097400293e+02
1.803017740859569784e+00,3.996672202020921105e+01,3.403173283488212064e+01,2.070913939546193916e+01,-3.506038617664037247e+02,-3.506968406994521956e+02,-3.513797511658183339e+02
1.836538343348347313e+00,3.997099484541707426e+01,3.403600440249238090e+01,2.071337637392562669e+01,-3.507722930136827699e+02,-3.508635749107608603e+02,-3.515340232127510944e+02
1.870682140365801827e+00,3.997511710149417041e+01,3.404012544645981819e+01,2.071746407958352876e+01,-3.509378115932659625e+02,-3.510274274276519009e+02,-3.516856408987375744e+02
1.905460717963248340e+00,3.997909395877162808e+01,3.404410113547027095e+01,2.072140763589781187e+01,-3.511004622725997706e+02,-3.511884424523059920e+02,-3.518346442834628078e+02
1.940885877592779529e+00,3.998293041944450721e+01,3.404793647013299562e+01,2.072521199988840124e+01,-3.512602894285304274e+02,-3.513466638066173573e+02,-3.519810731215686701e+02
1.976969640111861937e+00,3.998663132238512929e+01,3.405163628779189366e+01,2.072888196688518647e+01,-3.514173370335998356e+02,-3.515021349183021471e+02,-3.521249668474083023e+02
2.013724249862389293e+00,3.999020134786513125e+01,3.405520526724543373e+01,2.073242217519108621e+01,-3.515716486435386514e+02,-3.516548988082063261e+02,-3.522663645610243179e+02
2.051162178825564730e+00,3.999364502218433159e+01,3.405864793337357099e+01,2.073583711065407442e+01,-3.517232673858956105e+02,-3.518049980787541244e+02,-3.524053050152903097e+02
2.089296130854038758e+00,3.999696672220491678e+01,3.406196866166997239e+01,2.073913111114664787e+01,-3.518722359497484149e+02,-3.519524749034804927e+02,-3.525418266041594961e+02
2.128139045982711419e+00,4.000017067978983931e+01,3.406517168267858153e+01,2.074230837095131008e+01,-3.520185965764397338e+02,-3.520973710175929909e+02,-3.526759673519651983e+02
2.167704104819693889e+00,4.000326098614451098e+01,3.406826108633350003e+01,2.074537294505145013e+01,-3.521623910512878979e+02,-3.522397277095101344e+02,-3.528077649037202264e+02
2.208004733018899213e+00,4.000624159606133645e+01,3.407124082620179450e+01,2.074832875332674931e+01,-3.523036606962186852e+02,-3.523795858133254342e+02,-3.529372565163632771e+02
2.249054605835780318e+00,4.000911633206663254e+01,3.407411472362879579e+01,2.075117958465284929e+01,-3.524424463632716993e+02,-3.525169857021477924e+02,-3.530644790509040831e+02
2.290867652767772267e+00,4.001188888847004677e+01,3.407688647178584773e+01,2.075392910090513965e+01,-3.525787884289329099e+02,-3.526519672822724374e+02,-3.531894689654187687e+02
2.333458062281001943e+00,4.001456283531646818e+01,3.407955963962073298e+01,2.075658084086674293e+01,-3.527127267892486771e+02,-3.527845699881346491e+02,-3.533122623088501086e+02
2.376840286624875898e+00,4.001714162224096327e+01,3.408213767571105990e+01,2.075913822404107023e+01,-3.528443008556774316e+02,-3.529148327780054046e+02,-3.534328947155698302e+02
2.421029046736177470e+00,4.001962858222703545e+01,3.408462391202117914e+01,2.076160455436929198e+01,-3.529735495516378592e+02,-3.530427941303860848e+02,-3.535514014006590173e+02
2.466039337234338547e+00,4.002202693526921706e+01,3.408702156756328350e+01,2.076398302385352679e+01,-3.531005113097131130e+02,-3.531684920410615405e+02,-3.536678171558682493e+02
2.511886431509579687e+00,4.002433979194058367e+01,3.408933375196363613e+01,2.076627671608641279e+01,-3.532252240694737679e+02,-3.532919640207749126e+02,-3.537821763462175113e+02
2.558585886905645257e+00,4.002657015686622088e+01,3.409156346893480816e+01,2.076848860968807386e+01,-3.533477252758814871e+02,-3.534132470934861772e+02,-3.538945129072000100e+02
2.606153549998895258e+00,4.002872093210392990e+01,3.409371361965503411e+01,2.077062158165150052e+01,-3.534680518782399758e+02,-3.535323777951799684e+02,-3.540048603425531155e+02
2.654605561975539096e+00,4.003079492043310950e+01,3.409578700605599266e+01,2.077267841059746445e+01,-3.535862403296586081e+02,-3.536493921731893693e+02,-3.541132517225645984e+02
2.703958364108843160e+00,4.003279482855325000e+01,3.409778633402012105e+01,2.077466177994034524e+01,-3.537023265869976285e+02,-3.537643257860034396e+02,-3.542197196828795427e+02
2.754228703338166273e+00,4.003472327019348853e+01,3.409971421648903345e+01,2.077657428096600611e+01,-3.538163461112638970e+02,-3.538772137035276728e+02,-3.543242964237797423e+02
2.805433637951713077e+00,4.003658276913448333e+01,3.410157317648435082e+01,2.077841841582331028e+01,-3.539283338684285809e+02,-3.539880905077692432e+02,-3.544270137099038607e+02
2.857590543374946446e+00,4.003837576214426974e+01,3.410336565004254794e+01,2.078019660043063510e+01,-3.540383243306387158e+02,-3.540969902939184522e+02,-3.545279028703815811e+02
2.910717118066604936e+00,4.004010460182961850e+01,3.410509398906527423e+01,2.078191116729896848e+01,-3.541463514777968840e+02,-3.542039466718001677e+02,-3.546269947993551455e+02
2.964831389524342331e+00,4.004177155940445942e+01,3.410676046408686091e+01,2.078356436827305842e+01,-3.542524487994832043e+02,-3.543089927676708726e+02,-3.547243199568624732e+02
3.019951720402016537e+00,4.004337882737709720e+01,3.410836726696059173e+01,2.078515837719240267e+01,-3.543566492971966113e+02,-3.544121612263361953e+02,-3.548199083700571919e+02
3.076096814740707952e+00,4.004492852215780374e+01,3.410991651346537878e+01,2.078669529247348180e+01,-3.544589854868917769e+02,-3.545134842135670965e+02,-3.549137896347440915e+02
3.133285724315585608e+00,4.004642268658851378e+01,3.411141024583467640e+01,2.078817713961510094e+01,-3.545594894017911543e+02,-3.546129934187931099e+02,-3.550059929172066404e+02
3.191537855100761600e+00,4.004786329239634313e+01,3.411285043520911842e+01,2.078960587362836421e+01,-3.546581925954511121e+02,-3.547107200580521180e+02,-3.550965469563067245e+02
3.250872973854344039e+00,4.004925224257267047e+01,3.411423898401478993e+01,2.079098338139306890e+01,-3.547551261450628317e+02,-3.548066948771761986e+02,-3.551854800658363729e+02
3.311311214825911176e+00,4.005059137367943123e+01,3.411557772826879642e+01,2.079231148394218565e+01,-3.548503206549698348e+02,-3.549009481551972840e+02,-3.552728201371031673e+02
3.372873086588688896e+00,4.005188245808439262e+01,3.411686843981380690e+01,2.079359193867608013e+01,-3.549438062603843491e+02,-3.549935097079529669e+02,-3.553585946417316563e+02
3.435579478998746605e+00,4.005312720612727162e+01,3.411811282848336901e+01,2.079482644150823489e+01,-3.550356126312864262e+02,-3.550844088918773309e+02,-3.554428306346636646e+02
3.499451670283573623e+00,4.005432726821803158e+01,3.411931254419967985e+01,2.079601662894414815e+01,-3.551257689764898942e+02,-3.551736746079606064e+02,-3.555255547573414105e+02
3.564511334262442599e+00,4.005548423686964554e+01,3.412046917900548237e+01,2.079716408009504747e+01,-3.552143040478605940e+02,-3.552613353058628149e+02,-3.556067932410593357e+02
3.630780547701013994e+00,4.005659964866637779e+01,3.412158426903189223e+01,2.079827031862814835e+01,-3.553012461446727457e+02,-3.553474189881677603e+02,-3.556865719104695245e+02
3.698281797802662751e+00,4.005767498616981470e+01,3.412265929640371098e+01,2.079933681465507789e+01,-3.553866231180901991e+02,-3.554319532147637233e+02,-3.557649161872270724e+02
3.767037989839089107e+00,4.005871167976395242e+01,3.412369569108398082e+01,2.080036498656010480e+01,-3.554704623757606328e+02,-3.555149651073385826e+02,-3.558418510937641486e+02
3.837072454922788811e+00,4.005971110944118152e+01,3.412469483265929426e+01,2.080135620276983133e+01,-3.555527908865101949e+02,-3.555964813539778220e+02,-3.559174012571785966e+02
3.908408957924021099e+00,4.006067460653065382e+01,3.412565805206775593e+01,2.080231178346588550e+01,-3.556336351851283553e+02,-3.556765282138537714e+02,-3.559915909132275260e+02
3.981071705534973137e+00,4.006160345537074363e+01,3.412658663327079722e+01,2.080323300224225136e+01,-3.557130213772314846e+02,-3.557551315219959633e+02,-3.560644439104145249e+02
4.055085354483838778e+00,4.006249889492707439e+01,3.412748181487074106e+01,2.080412108770871882e+01,-3.557909751441964659e+02,-3.558323166941328282e+02,-3.561359837141598064e+02
4.130475019901614253e+00,4.006336212035775191e+01,3.412834479167554491e+01,2.080497722504208014e+01,-3.558675217481542177e+02,-3.559081087315951208e+02,-3.562062334110453889e+02
4.207266283844441901e+00,4.006419428452726805e+01,3.412917671621221416e+01,2.080580255748646934e+01,-3.559426860370351733e+02,-3.559825322262727809e+02,-3.562752157131243962e+02
4.285485203974396029e+00,4.006499649947055985e+01,3.412997870019038515e+01,2.080659818780438286e+01,-3.560164924496572780e+02,-3.560556113656166417e+02,-3.563429529622877112e+02
4.365158322401661017e+00,4.006576983780868062e+01,3.413075181591759844e+01,2.080736517967978472e+01,-3.560889650208508783e+02,-3.561273699376772583e+02,-3.564094671346791756e+02
4.446312674691088596e+00,4.006651533411759658e+01,3.413149709766764062e+01,2.080810455907474221e+01,-3.561601273866114070e+02,-3.561978313361742039e+02,-3.564747798451520566e+02
4.528975799036208727e+00,4.006723398625138088e+01,3.413221554300334759e+01,2.080881731554097414e+01,-3.562300027892734988e+02,-3.562670185655884438e+02,-3.565389123517602457e+02
4.613175745603795619e+00,4.006792675662132552e+01,3.413290811405527592e+01,2.080950440348765440e+01,-3.562986140827018176e+02,-3.563349542462715362e+02,-3.566018855602767417e+02
4.698941086052156102e+00,4.006859457343211517e+01,3.413357573875757822e+01,2.081016674340678918e+01,-3.563659837374898416e+02,-3.564016606195661439e+02,-3.566637200287345877e+02
4.786300923226384896e+00,4.006923833187663320e+01,3.413421931204233317e+01,2.081080522305745717e+01,-3.564321338461642199e+02,-3.564671595529317756e+02,-3.567244359719831550e+02
4.875284901033865026e+00,4.006985889529038047e+01,3.413483969699372267e+01,2.081142069861027721e+01,-3.564970861283867976e+02,-3.565314725450712672e+02,-3.567840532662552846e+02
4.965923214503362715e+00,4.007045709626705587e+01,3.413543772596317893e+01,2.081201399575313715e+01,-3.565608619361511842e+02,-3.565946207310518616e+02,-3.568425914537399422e+02
5.058246620031142449e+00,4.007103373773623645e+01,3.413601420164679467e+01,2.081258591075959430e+01,-3.566234822589693181e+02,-3.566566248874181042e+02,-3.569000697471560670e+02
5.152286445817567007e+00,4.007158959400456411e+01,3.413656989812618292e+01,2.081313721152099561e+01,-3.566849677290425120e+02,-3.567175054372910381e+02,-3.569565070343225557e+02
5.248074602497728947e+00,4.007212541176151177e+01,3.413710556187389500e+01,2.081366863854350413e+01,-3.567453386264149344e+02,-3.567772824554504041e+02,-3.570119218827207987e+02
5.345643593969718665e+00,4.007264191105073081e+01,3.413762191272454771e+01,2.081418090591114378e+01,-3.568046148841044101e+02,-3.568359756733962058e+02,-3.570663325440462472e+02
5.445026528424214085e+00,4.007313978620835826e+01,3.413811964481276107e+01,2.081467470221593175e+01,-3.568628160932082665e+02,-3.568936044843856621e+02,-3.571197569587444036e+02
5.546257129579109879e+00,4.007361970676907958e+01,3.413859942747901499e+01,2.081515069145618213e+01,-3.569199615079804175e+02,-3.569501879484434426e+02,-3.571722127605294759e+02
5.649369748123028501e+00,4.007408231834106971e+01,3.413906190614432035e+01,2.081560951390396497e+01,-3.569760700508772402e+02,-3.570057447973417197e+02,-3.572237172808813739e+02
5.754399373371572146e+00,4.007452824345095621e+01,3.413950770315487659e+01,2.081605178694275438e+01,-3.570311603175696291e+02,-3.570602934395474222e+02,-3.572742875535188887e+02
5.861381645140290253e+00,4.007495808235955081e+01,3.413993741859760433e+01,2.081647810587624292e+01,-3.570852505819184444e+02,-3.571138519651340744e+02,-3.573239403188461552e+02
5.970352865838371770e+00,4.007537241384943627e+01,3.414035163108750481e+01,2.081688904470921386e+01,-3.571383588009115897e+02,-3.571664381506569157e+02,-3.573726920283704089e+02
6.081350012787182457e+00,4.007577179598542472e+01,3.414075089852784828e+01,2.081728515690141990e+01,-3.571905026195605615e+02,-3.572180694639876606e+02,-3.574205588490887635e+02
6.194410750767818108e+00,4.007615676684850570e+01,3.414113575884393015e+01,2.081766697609539563e+01,-3.572416993757543082e+02,-3.572687630691086724e+02,-3.574675566678409950e+02
6.309573444801936937e+00,4.007652784524446332e+01,3.414150673069148212e+01,2.081803501681897473e+01,-3.572919661050693776e+02,-3.573185358308637660e+02,-3.575137010956284485e+02
6.426877173170199242e+00,4.007688553138780208e+01,3.414186431414036349e+01,2.081838977516346034e+01,-3.573413195455338496e+02,-3.573674043196647290e+02,-3.575590074718950859e+02
6.546361740672747231e+00,4.007723030756186233e+01,3.414220899133453457e+01,2.081873172943810246e+01,-3.573897761423446013e+02,-3.574153848161513451e+02,-3.576034908687715870e+02
6.668067692136218305e+00,4.007756263875600666e+01,3.414254122712898010e+01,2.081906134080189474e+01,-3.574373520525366530e+02,-3.574624933158047497e+02,-3.576471660952782941e+02
6.792036326171842830e+00,4.007788297328044536e+01,3.414286146970440683e+01,2.081937905387324861e+01,-3.574840631496023775e+02,-3.575087455335121831e+02,-3.576900477014887088e+02
6.918309709189361278e+00,4.007819174335964618e+01,3.414317015116048992e+01,2.081968529731836881e+01,-3.575299250280607453e+02,-3.575541569080824615e+02,-3.577321499826498439e+02
7.046930689671467185e+00,4.007848936570503895e+01,3.414346768808833588e+01,2.081998048441906590e+01,-3.575749530079757506e+02,-3.575987426067109709e+02,-3.577734869832603408e+02
7.177942912713614732e+00,4.007877624206749090e+01,3.414375448212288688e+01,2.082026501362067350e+01,-3.576191621394220306e+02,-3.576425175293942402e+02,-3.578140725011037944e+02
7.311390834834172736e+00,4.007905275977057613e+01,3.414403092047592736e+01,2.082053926906077379e+01,-3.576625672068984159e+02,-3.576854963132919352e+02,-3.578539200912381943e+02
7.447319739059887311e+00,4.007931929222496592e+01,3.414429737645045293e+01,2.082080362107931393e+01,-3.577051827336883321e+02,-3.577276933370376355e+02,-3.578930430699392673e+02
7.585775750291835706e+00,4.007957619942487071e+01,3.414455420993684953e+01,2.082105842671080254e+01,-3.577470229861660869e+02,-3.577691227249957251e+02,-3.579314545185976613e+02
7.726805850957020994e+00,4.007982382842692459e+01,3.414480176789168553e+01,2.082130403015924003e+01,-3.577881019780493830e+02,-3.578097983514661564e+02,-3.579691672875703148e+02
7.870457896950984633e+00,4.008006251381220864e+01,3.414504038479958581e+01,2.082154076325623748e+01,-3.578284334745976594e+02,-3.578497338448349865e+02,-3.580061939999836795e+02
8.016780633876789963e+00,4.008029257813200275e+01,3.414527038311889129e+01,2.082176894590306659e+01,-3.578680309967551807e+02,-3.578889425916714799e+02,-3.580425470554905019e+02
8.165823713585922405e+00,4.008051433233779903e+01,3.414549207371149464e+01,2.082198888649704926e+01,-3.579069078252400686e+02,-3.579274377407712109e+02,-3.580782386339778895e+02
8.317637711026709013e+00,4.008072807619608824e+01,3.414570575625755566e+01,2.082220088234291921e+01,-3.579450770045781951e+02,-3.579652322071452772e+02,-3.581132806992286532e+02
8.472274141405963022e+00,4.008093409868858714e+01,3.414591171965552974e+01,2.082240522004961747e+01,-3.579825513470816531e+02,-3.580023386759551727e+02,-3.581476850025331942e+02
8.629785477669701166e+00,4.008113267839812011e+01,3.414611024240804937e+01,2.082260217591306883e+01,-3.580193434367733403e+02,-3.580387696063932594e+02,-3.581814630862541549e+02
8.790225168308841930e+00,4.008132408388103585e+01,3.414630159299414203e+01,2.082279201628540832e+01,-3.580554656332554941e+02,-3.580745372355104905e+02,-3.582146262873421847e+02
8.953647655495936775e+00,4.008150857402624467e+01,3.414648603022819628e+01,2.082297499793106965e+01,-3.580909300755245113e+02,-3.581096535819880842e+02,-3.582471857408037863e+02
9.120108393559096527e+00,4.008168639840165071e+01,3.414666380360630171e+01,2.082315136837033620e+01,-3.581257486857306844e+02,-3.581441304498573572e+02,-3.582791523831205609e+02
9.289663867799362151e+00,4.008185779758824907e+01,3.414683515364021815e+01,2.082332136621060314e+01,-3.581599331728835409e+02,-3.581779794321648183e+02,-3.583105369556205346e+02
9.462371613657929004e+00,4.008202300350228597e+01,3.414700031217947185e+01,2.082348522146594050e+01,-3.581934950365030659e+02,-3.582112119145838278e+02,-3.583413500078012248e+02
9.638290236239704711e+00,4.008218223970608562e+01,3.414715950272208289e+01,2.082364315586527681e+01,-3.582264455702173223e+02,-3.582438390789737923e+02,-3.583716019006049578e+02
9.817479430199844259e+00,4.008233572170772163e+01,3.414731294071413004e+01,2.082379538314960499e+01,-3.582587958653059559e+02,-3.582758719068858113e+02,-3.584013028096462676e+02
1.000000000000000000e+01,4.008248365725006579e+01,3.414746083383876396e+01,2.082394210935864720e+01,-3.582905568141910067e+02,-3.583073211830159153e+02,-3.584304627283923992e+02
1.018591388054116997e+01,4.008262624658958373e+01,3.414760338229486081e+01,2.082408353310730575e+01,-3.583217391138747985e+02,-3.583381974986066325e+02,-3.584590914712954941e+02
1.037528415818012739e+01,4.008276368276509061e+01,3.414774077906573524e+01,2.082421984585220187e+01,-3.583523532693244533e+02,-3.583685112547958056e+02,-3.584871986768791885e+02
1.056817509213658468e+01,4.008289615185702814e+01,3.414787321017834643e+01,2.082435123214882466e+01,-3.583824095968058714e+02,-3.583982726659149307e+02,-3.585147938107772916e+02
1.076465213629835027e+01,4.008302383323744777e+01,3.414800085495318172e+01,2.082447786989943594e+01,-3.584119182271646196e+02,-3.584274917627358263e+02,-3.585418861687274443e+02
1.096478196143185180e+01,4.008314689981104806e+01,3.414812388624526562e+01,2.082459993059209324e+01,-3.584408891090565703e+02,-3.584561783956669387e+02,-3.585684848795175981e+02
1.116863247780561252e+01,4.008326551824768558e+01,3.414824247067654994e+01,2.082471757953126001e+01,-3.584693320121272109e+02,-3.584843422378997388e+02,-3.585945989078879279e+02
1.137627285823431045e+01,4.008337984920649433e+01,3.414835676886000471e+01,2.082483097606004918e+01,-3.584972565301413283e+02,-3.585119927885053812e+02,-3.586202370573869871e+02
1.158777356155126270e+01,4.008349004755201861e+01,3.414846693561570135e+01,2.082494027377462231e+01,-3.585246720840623311e+02,-3.585391393754819092e+02,-3.586454079731835236e+02
1.180320635651730043e+01,4.008359626256268626e+01,3.414857312017916513e+01,2.082504562073085097e+01,-3.585515879250827993e+02,-3.585657911587534272e+02,-3.586701201448335041e+02
1.202264434617413080e+01,4.008369863813170753e+01,3.414867546640229534e+01,2.082514715964363461e+01,-3.585780131376059785e+02,-3.585919571331205020e+02,-3.586943819090035390e+02
1.224616199265048877e+01,4.008379731296085424e+01,3.414877411294702370e+01,2.082524502807907041e+01,-3.586039566421795257e+02,-3.586176461311636103e+02,-3.587182014521509927e+02
1.247383514242943292e+01,4.008389242074733971e+01,3.414886919347216576e+01,2.082533935863974506e+01,-3.586294271983816202e+02,-3.586428668260991799e+02,-3.587415868131606658e+02
1.270574105208542015e+01,4.008398409036391996e+01,3.414896083681345829e+01,2.082543027914340072e+01,-3.586544334076592691e+02,-3.586676277345887911e+02,-3.587645458859394125e+02
1.294195841449986339e+01,4.008407244603258590e+01,3.414904916715725136e+01,2.082551791279514930e+01,-3.586789837161210812e+02,-3.586919372195031315e+02,-3.587870864219682403e+02
1.318256738556407370e+01,4.008415760749201695e+01,3.414913430420783413e+01,2.082560237835361150e+01,-3.587030864172837141e+02,-3.587158034926401911e+02,-3.588092160328135378e+02
1.342764961137864255e+01,4.008423969015908739e+01,3.414921636334894117e+01,2.082568379029101990e+01,-3.587267496547725045e+02,-3.587392346173982673e+02,-3.588309421925963534e+02
1.367728825595849429e+01,4.008431880528448232e+01,3.414929545579933290e+01,2.082576225894760569e+01,-3.587499814249783867e+02,-3.587622385114053145e+02,-3.588522722404217120e+02
1.393156802945303774e+01,4.008439506010282116e+01,3.414937168876284801e+01,2.082583789068044666e+01,-3.587727895796693360e+02,-3.587848229491040684e+02,-3.588732133827679718e+02
1.419057521689092560e+01,4.008446855797733122e+01,3.414944516557304155e+01,2.082591078800698270e+01,-3.587951818285591230e+02,-3.588069955642943114e+02,-3.588937726958357644e+02
1.445439770745928065e+01,4.008453939853937698e+01,3.414951598583269288e+01,2.082598104974338327e+01,-3.588171657418322411e+02,-3.588287638526323917e+02,-3.589139571278590211e+02
1.472312502432719405e+01,4.008460767782295164e+01,3.414958424554821903e+01,2.082604877113791986e+01,-3.588387487526275095e+02,-3.588501351740888481e+02,-3.589337735013763790e+02
1.499684835502373836e+01,4.008467348839432276e+01,3.414965003725934878e+01,2.082611404399958488e+01,-3.588599381594783040e+02,-3.588711167553645396e+02,-3.589532285154654119e+02
1.527566058238073232e+01,4.008473691947707351e+01,3.414971345016405024e+01,2.082617695682204229e+01,-3.588807411287124864e+02,-3.588917156922659046e+02,-3.589723287479386613e+02
1.555965631605075039e+01,4.008479805707260368e+01,3.414977457023903185e+01,2.082623759490319770e+01,-3.589011646968115770e+02,-3.589119389520398613e+02,-3.589910806575030051e+02
1.584893192461114175e+01,4.008485698407631048e+01,3.414983348035593735e+01,2.082629604046039873e+01,-3.589212157727290560e+02,-3.589317933756693719e+02,-3.590094905858823040e+02
1.614358556826486790e+01,4.008491378038959851e+01,3.414989026039323505e+01,2.082635237274152118e+01,-3.589409011401698990e+02,-3.589512856801292742e+02,-3.590275647599044646e+02
1.644371723214932501e+01,4.008496852302788227e+01,3.414994498734426287e+01,2.082640666813209407e+01,-3.589602274598306622e+02,-3.589704224606040270e+02,-3.590453092935524637e+02
1.674942876026438299e+01,4.008502128622468064e+01,3.414999773542120209e+01,2.082645900025850949e+01,-3.589792012716013119e+02,-3.589892101926670307e+02,-3.590627301899805843e+02
1.706082389003124433e+01,4.008507214153191711e+01,3.415004857615549838e+01,2.082650944008756966e+01,-3.589978289967287992e+02,-3.590076552344229412e+02,-3.590798333434964889e+02
1.737800828749376336e+01,4.008512115791674546e+01,3.415009757849449556e+01,2.082655805602243504e+01,-3.590161169399443679e+02,-3.590257638286128099e+02,-3.590966245415087883e+02
1.770108958317421965e+01,4.008516840185475871e+01,3.415014480889472992e+01,2.082660491399510505e+01,-3.590340712915526069e+02,-3.590435421046826150e+02,-3.591131094664416423e+02
1.803017740859569784e+01,4.008521393741987993e+01,3.415019033141174987e+01,2.082665007755560538e+01,-3.590516981294857715e+02,-3.590609960808168921e+02,-3.591292936976160490e+02
1.836538343348347269e+01,4.008525782637110524e+01,3.415023420778683061e+01,2.082669360795793878e+01,-3.590690034213216677e+02,-3.590781316659360982e+02,-3.591451827130989045e+02
1.870682140365801516e+01,4.008530012823595001e+01,3.415027649753042027e+01,2.082673556424293082e+01,-3.590859930262666353e+02,-3.590949546616599264e+02,-3.591607818915196049e+02
1.905460717963248385e+01,4.008534090039106701e+01,3.415031725800273676e+01,2.082677600331813395e+01,-3.591026726971040262e+02,-3.591114707642361736e+02,-3.591760965138560096e+02
1.940885877592779352e+01,4.008538019813985898e+01,3.415035654449128799e+01,2.082681498003480769e+01,-3.591190480821089750e+02,-3.591276855664361278e+02,-3.591911317651884588e+02
1.976969640111861892e+01,4.008541807478731300e+01,3.415039441028580569e+01,2.082685254726215618e+01,-3.591351247269292912e+02,-3.591436045594169286e+02,-3.592058927364240617e+02
2.013724249862389470e+01,4.008545458171213483e+01,3.415043090675025184e+01,2.082688875595889755e+01,-3.591509080764333248e+02,-3.591592331345510729e+02,-3.592203844259902326e+02
2.051162178825566684e+01,4.008548976843633938e+01,3.415046608339243051e+01,2.082692365524218658e+01,-3.591664034765265114e+02,-3.591745765852240879e+02,-3.592346117414993500e+02
2.089296130854040356e+01,4.008552368269221944e+01,3.415049998793097075e+01,2.082695729245416061e+01,-3.591816161759346073e+02,-3.591896401086005994e+02,-3.592485795013836309e+02
2.128139045982713284e+01,4.008555637048705478e+01,3.415053266635995044e+01,2.082698971322601622e+01,-3.591965513279563993e+02,-3.592044288073595339e+02,-3.592622924365019230e+02
2.167704104819694422e+01,4.008558787616532015e+01,3.415056416301113273e+01,2.082702096153976967e+01,-3.592112139921854350e+02,-3.592189476913983412e+02,-3.592757551917179626e+02
2.208004733018899302e+01,4.008561824246879013e+01,3.415059452061404244e+01,2.082705107978784298e+01,-3.592256091362015127e+02,-3.592332016795077152e+02,-3.592889723274508924e+02
2.249054605835780407e+01,4.008564751059439146e+01,3.415062378035378998e+01,2.082708010883044025e+01,-3.592397416372319299e+02,-3.592471956010164149e+02,-3.593019483211989495e+02
2.290867652767772356e+01,4.008567572025003756e+01,3.415065198192689877e+01,2.082710808805092384e+01,-3.592536162837837423e+02,-3.592609341974072095e+02,-3.593146875690355841e+02
2.333458062281001943e+01,4.008570290970833128e+01,3.415067916359502220e+01,2.082713505540912280e+01,-3.592672377772470327e+02,-3.592744221239042304e+02,-3.593271943870798282e+02
2.376840286624875986e+01,4.008572911585851273e+01,3.415070536223679909e+01,2.082716104749276553e+01,-3.592806107334697003e+02,-3.592876639510319592e+02,-3.593394730129404593e+02
2.421029046736177293e+01,4.008575437425633226e+01,3.415073061339781191e+01,2.082718609956704015e+01,-3.592937396843043985e+02,-3.593006641661468734e+02,-3.593515276071341873e+02
2.466039337234338547e+01,4.008577871917231050e+01,3.415075495133872607e+01,2.082721024562237488e+01,-3.593066290791280153e+02,-3.593134271749419213e+02,-3.593633622544797390e+02
2.511886431509579509e+01,4.008580218363807290e+01,3.415077840908173812e+01,2.082723351842048132e+01,-3.593192832863340982e+02,-3.593259573029240528e+02,-3.593749809654660794e+02
2.558585886905645168e+01,4.008582479949120625e+01,3.415080101845528304e+01,2.082725594953875259e+01,-3.593317065947991296e+02,-3.593382587968656594e+02,-3.593863876775972130e+02
2.606153549998894903e+01,4.008584659741833889e+01,3.415082281013719978e+01,2.082727756941305586e+01,-3.593439032153215180e+02,-3.593503358262298661e+02,-3.593975862567127706e+02
2.654605561975538564e+01,4.008586760699672169e+01,3.415084381369625532e+01,2.082729840737894378e+01,-3.593558772820365448e+02,-3.593621924845709827e+02,-3.594085804982848344e+02
2.703958364108843426e+01,4.008588785673435240e+01,3.415086405763229038e+01,2.082731849171146621e+01,-3.593676328538051052e+02,-3.593738327909095460e+02,-3.594193741286924251e+02
2.754228703338166184e+01,4.008590737410857230e+01,3.415088356941477343e+01,2.082733784966344004e+01,-3.593791739155774394e+02,-3.593852606910827490e+02,-3.594299708064723404e+02
2.805433637951713166e+01,4.008592618560334131e+01,3.415090237552005448e+01,2.082735650750240808e+01,-3.593905043797334997e+02,-3.593964800590712798e+02,-3.594403741235484517e+02
2.857590543374946179e+01,4.008594431674510616e+01,3.415092050146727587e+01,2.082737449054625500e+01,-3.594016280873983078e+02,-3.594074946983018890e+02,-3.594505876064387166e+02
2.910717118066605025e+01,4.008596179213741095e+01,3.415093797185293312e+01,2.082739182319748750e+01,-3.594125488097342895e+02,-3.594183083429265935e+02,-3.594606147174408193e+02
2.964831389524342242e+01,4.008597863549429263e+01,3.415095481038425618e+01,2.082740852897636330e+01,-3.594232702492107023e+02,-3.594289246590799394e+02,-3.594704588557961529e+02
3.019951720402016093e+01,4.008599486967234782e+01,3.415097103991129046e+01,2.082742463055273774e+01,-3.594337960408495292e+02,-3.594393472461123338e+02,-3.594801233588335663e+02
3.076096814740708041e+01,4.008601051670176219e+01,3.415098668245793334e+01,2.082744014977681246e+01,-3.594441297534499427e+02,-3.594495796378024011e+02,-3.594896115030924193e+02
3.133285724315585696e+01,4.008602559781621721e+01,3.415100175925174852e+01,2.082745510770875441e+01,-3.594542748907899750e+02,-3.594596253035469431e+02,-3.594989265054252883e+02
3.191537855100761334e+01,4.008604013348160322e+01,3.415101629075279277e+01,2.082746952464727030e+01,-3.594642348928074398e+02,-3.594694876495298104e+02,-3.595080715240812310e+02
3.250872973854343684e+01,4.008605414342383710e+01,3.415103029668129864e+01,2.082748342015708687e+01,-3.594740131367587423e+02,-3.594791700198698550e+02,-3.595170496597694410e+02
3.311311214825911264e+01,4.008606764665556454e+01,3.415104379604447615e+01,2.082749681309552514e+01,-3.594836129383576235e+02,-3.594886756977479649e+02,-3.595258639567038017e+02
3.372873086588688807e+01,4.008608066150194560e+01,3.415105680716224867e+01,2.082750972163804448e+01,-3.594930375528930426e+02,-3.594980079065138625e+02,-3.595345174036287972e+02
3.435579478998746339e+01,4.008609320562555922e+01,3.415106934769210767e+01,2.082752216330288775e+01,-3.595022901763269374e+02,-3.595071698107734051e+02,-3.595430129348267201e+02
3.499451670283573179e+01,4.008610529605025619e+01,3.415108143465305801e+01,2.082753415497487026e+01,-3.595113739463723732e+02,-3.595161645174559339e+02,-3.595513534311073727e+02
3.564511334262442688e+01,4.008611694918435830e+01,3.415109308444868930e+01,2.082754571292822021e+01,-3.595202919435521380e+02,-3.595249950768621829e+02,-3.595595417207789524e+02
3.630780547701014171e+01,4.008612818084282026e+01,3.415110431288943005e+01,2.082755685284870850e+01,-3.595290471922383517e+02,-3.595336644836939399e+02,-3.595675805806025096e+02
3.698281797802662396e+01,4.008613900626872351e+01,3.415111513521401321e+01,2.082756758985489398e+01,-3.595376426616733738e+02,-3.595421756780646660e+02,-3.595754727367286137e+02
3.767037989839089107e+01,4.008614944015394599e+01,3.415112556611008188e+01,2.082757793851862260e+01,-3.595460812669718962e+02,-3.595505315464922091e+02,-3.595832208656171929e+02
3.837072454922788012e+01,4.008615949665907863e+01,3.415113561973419110e+01,2.082758791288480538e+01,-3.595543658701056415e+02,-3.595587349228728158e+02,-3.595908275949410040e+02
3.908408957924021365e+01,4.008616918943264551e+01,3.415114530973093565e+01,2.082759752649046803e+01,-3.595624992808696447e+02,-3.595667885894389428e+02,-3.595982955044724463e+02
3.981071705534973404e+01,4.008617853162960643e+01,3.415115464925151656e+01,2.082760679238310075e+01,-3.595704842578316516e+02,-3.595746952776985950e+02,-3.596056271269550280e+02
4.055085354483838955e+01,4.008618753592919859e+01,3.415116365097154727e+01,2.082761572313837206e+01,-3.595783235092635550e+02,-3.595824576693578933e+02,-3.596128249489581776e+02
4.130475019901614786e+01,4.008619621455216731e+01,3.415117232710824169e+01,2.082762433087717824e+01,-3.595860196940570859e+02,-3.595900783972276713e+02,-3.596198914117175036e+02
4.207266283844441546e+01,4.008620457927727188e+01,3.415118068943701246e+01,2.082763262728207820e+01,-3.595935754226218819e+02,-3.595975600461126191e+02,-3.596268289119592509e+02
4.285485203974396740e+01,4.008621264145736518e+01,3.415118874930745108e+01,2.082764062361316348e+01,-3.596009932577678683e+02,-3.596049051536852517e+02,-3.596336398027103201e+02
4.365158322401661195e+01,4.008622041203469166e+01,3.415119651765866138e+01,2.082764833072331356e+01,-3.596082757155720060e+02,-3.596121162113437890e+02,-3.596403263940930515e+02
4.446312674691088773e+01,4.008622790155580873e+01,3.415120400503418807e+01,2.082765575907292188e+01,-3.596154252662284421e+02,-3.596191956650540078e+02,-3.596468909541063681e+02
4.528975799036209082e+01,4.008623512018586865e+01,3.415121122159626310e+01,2.082766291874410314e+01,-3.596224443348838804e+02,-3.596261459161765970e+02,-3.596533357093923087e+02
4.613175745603795264e+01,4.008624207772237469e+01,3.415121817713959018e+01,2.082766981945433571e+01,-3.596293353024578892e+02,-3.596329693222792230e+02,-3.596596628459886347e+02
4.698941086052155924e+01,4.008624878360855348e+01,3.415122488110468169e+01,2.082767647056969906e+01,-3.596361005064479741e+02,-3.596396681979337586e+02,-3.596658745100680790e+02
4.786300923226384896e+01,4.008625524694608089e+01,3.415123134259060578e+01,2.082768288111751787e+01,-3.596427422417204411e+02,-3.596462448154990739e+02,-3.596719728086642931e+02
4.875284901033865026e+01,4.008626147650748806e+01,3.415123757036738539e+01,2.082768905979867213e+01,-3.596492627612865363e+02,-3.596527014058901273e+02,-3.596779598103840954e+02
4.965923214503362715e+01,4.008626748074803459e+01,3.415124357288785006e+01,2.082769501499935672e+01,-3.596556642770648295e+02,-3.596590401593321644e+02,-3.596838375461073269e+02
5.058246620031141561e+01,4.008627326781719091e+01,3.415124935829915387e+01,2.082770075480247485e+01,-3.596619489606296156e+02,-3.596652632261025246e+02,-3.596896080096741457e+02
5.152286445817566829e+01,4.008627884556971566e+01,3.415125493445378169e+01,2.082770628699860538e+01,-3.596681189439459558e+02,-3.596713727172574977e+02,-3.596952731585589049e+02
5.248074602497728591e+01,4.008628422157624982e+01,3.415126030892022868e+01,2.082771161909658275e+01,-3.596741763200908508e+02,-3.596773707053474141e+02,-3.597008349145334023e+02
5.345643593969719376e+01,4.008628940313369071e+01,3.415126548899327474e+01,2.082771675833366842e+01,-3.596801231439620778e+02,-3.596832592251177516e+02,-3.597062951643162023e+02
5.445026528424213552e+01,4.008629439727499033e+01,3.415127048170387525e+01,2.082772171168538478e+01,-3.596859614329734427e+02,-3.596890402741980211e+02,-3.597116557602120679e+02
5.546257129579110057e+01,4.008629921077875480e+01,3.415127529382869653e+01,2.082772648587496533e+01,-3.596916931677380944e+02,-3.596947158137779752e+02,-3.597169185207382043e+02
5.649369748123028501e+01,4.008630385017843878e+01,3.415127993189931033e+01,2.082773108738249945e+01,-3.596973202927387661e+02,-3.597002877692715401e+02,-3.597220852312402712e+02
5.754399373371572324e+01,4.008630832177119174e+01,3.415128440221107553e+01,2.082773552245370396e+01,-3.597028447169862488e+02,-3.597057580309689797e+02,-3.597271576444964580e+02
5.861381645140290431e+01,4.008631263162644132e+01,3.415128871083166473e+01,2.082773979710840706e+01,-3.597082683146658724e+02,-3.597111284546764978e+02,-3.597321374813109855e+02
5.970352865838371770e+01,4.008631678559406453e+01,3.415129286360927807e+01,2.082774391714872664e+01,-3.597135929257722751e+02,-3.597164008623449831e+02,-3.597370264310968651e+02
6.081350012787182635e+01,4.008632078931236720e+01,3.415129686618063687e+01,2.082774788816692890e+01,-3.597188203567321807e+02,-3.597215770426871586e+02,-3.597418261524477998e+02
6.194410750767818286e+01,4.008632464821577912e+01,3.415130072397857219e+01,2.082775171555301696e+01,-3.597239523810165451e+02,-3.597266587517829066e+02,-3.597465382736999118e+02
6.309573444801936404e+01,4.008632836754213002e+01,3.415130444223943584e+01,2.082775540450206364e+01,-3.597289907397412208e+02,-3.597316477136747039e+02,-3.597511643934830659e+02
6.426877173170200308e+01,4.008633195233983315e+01,3.415130802601019155e+01,2.082775896002122451e+01,-3.597339371422567069e+02,-3.597365456209510626e+02,-3.597557060812624741e+02
6.546361740672753626e+01,4.008633540747469226e+01,3.415131148015525753e+01,2.082776238693659465e+01,-3.597387932667270434e+02,-3.597413541353200799e+02,-3.597601648778701815e+02
6.668067692136224878e+01,4.008633873763656652e+01,3.415131480936312869e+01,2.082776568989968879e+01,-3.597435607606985286e+02,-3.597460748881725294e+02,-3.597645422960270025e+02
6.792036326171850646e+01,4.008634194734565170e+01,3.415131801815271473e+01,2.082776887339380067e+01,-3.597482412416578654e+02,-3.597507094811343791e+02,-3.597688398208549643e+02
6.918309709189362877e+01,4.008634504095866191e+01,3.415132111087950051e+01,2.082777194174007107e+01,-3.597528362975801315e+02,-3.597552594866094751e+02,-3.597730589103805414e+02
7.046930689671467007e+01,4.008634802267475550e+01,3.415132409174142225e+01,2.082777489910334623e+01,-3.597573474874669159e+02,-3.597597264483123354e+02,-3.597772009960282844e+02
7.177942912713615442e+01,4.008635089654120520e+01,3.415132696478458740e+01,2.082777774949784089e+01,-3.597617763418745085e+02,-3.597641118817913934e+02,-3.597812674831062054e+02
7.311390834834172381e+01,4.008635366645890485e+01,3.415132973390878135e+01,2.082778049679257748e+01,-3.597661243634326524e+02,-3.597684172749422373e+02,-3.597852597512816715e+02
7.447319739059888377e+01,4.008635633618764871e+01,3.415133240287272542e+01,2.082778314471666192e+01,-3.597703930273537480e+02,-3.597726440885120951e+02,-3.597891791550490552e+02
7.585775750291836061e+01,4.008635890935124024e+01,3.415133497529919282e+01,2.082778569686429293e+01,-3.597745837819326766e+02,-3.597767937565948273e+02,-3.597930270241885751e+02
7.726805850957020994e+01,4.008636138944244465e+01,3.415133745467991844e+01,2.082778815669970029e+01,-3.597786980490378710e+02,-3.597808676871168245e+02,-3.597968046642171771e+02
7.870457896950985344e+01,4.008636377982767129e+01,3.415133984438036663e+01,2.082779052756179894e+01,-3.597827372245930633e+02,-3.597848672623144353e+02,-3.598005133568306064e+02
8.016780633876788897e+01,4.008636608375156385e+01,3.415134214764425735e+01,2.082779281266874705e+01,-3.597867026790505633e+02,-3.597887938392022988e+02,-3.598041543603381456e+02
8.165823713585920984e+01,4.008636830434144827e+01,3.415134436759800707e+01,2.082779501512229814e+01,-3.597905957578556126e+02,-3.597926487500333792e+02,-3.598077289100890539e+02
8.317637711026708303e+01,4.008637044461149657e+01,3.415134650725493515e+01,2.082779713791203591e+01,-3.597944177819026095e+02,-3.597964333027504154e+02,-3.598112382188908214e+02
8.472274141405962666e+01,4.008637250746689062e+01,3.415134856951938502e+01,2.082779918391938878e+01,-3.597981700479829215e+02,-3.598001487814295274e+02,-3.598146834774210561e+02
8.629785477669700811e+01,4.008637449570771594e+01,3.415135055719063928e+01,2.082780115592158410e+01,-3.598018538292243420e+02,-3.598037964467155234e+02,-3.598180658546302766e+02
8.790225168308842285e+01,4.008637641203279145e+01,3.415135247296674947e+01,2.082780305659540332e+01,-3.598054703755225887e+02,-3.598073775362489073e+02,-3.598213864981388497e+02
8.953647655495937840e+01,4.008637825904331464e+01,3.415135431944815991e+01,2.082780488852078804e+01,-3.598090209139656395e+02,-3.598108932650857810e+02,-3.598246465346254581e+02
9.120108393559097237e+01,4.008638003924641424e+01,3.415135609914128167e+01,2.082780665418439270e+01,-3.598125066492489168e+02,-3.598143448261099593e+02,-3.598278470702095433e+02
9.289663867799363572e+01,4.008638175505851819e+01,3.415135781446186058e+01,2.082780835598290281e+01,-3.598159287640843900e+02,-3.598177333904367856e+02,-3.598309891908259033e+02
9.462371613657930425e+01,4.008638340880865769e+01,3.415135946773825992e+01,2.082780999622634610e+01,-3.598192884196013779e+02,-3.598210601078108652e+02,-3.598340739625932088e+02
9.638290236239704711e+01,4.008638500274165040e+01,3.415136106121462944e+01,2.082781157714117981e+01,-3.598225867557400193e+02,-3.598243261069954997e+02,-3.598371024321751293e+02
9.817479430199843193e+01,4.008638653902107052e+01,3.415136259705396071e+01,2.082781310087332827e+01,-3.598258248916381490e+02,-3.598275324961555839e+02,-3.598400756271354908e+02
1.000000000000000000e+02,4.008638801973228283e+01,3.415136407734099322e+01,2.082781456949112098e+01,-3.598290039260107278e+02,-3.598306803632333413e+02,-3.598429945562864987e+02
1.018591388054116891e+02,4.008638944688520667e+01,3.415136550408508498e+01,2.082781598498804598e+01,-3.598321249375221669e+02,-3.598337707763171238e+02,-3.598458602100308212e+02
1.037528415818012633e+02,4.008639082241706575e+01,3.415136687922289127e+01,2.082781734928551032e+01,-3.598351889851521719e+02,-3.598368047840038457e+02,-3.598486735606976481e+02
1.056817509213658610e+02,4.008639214819499585e+01,3.415136820462102918e+01,2.082781866423541572e+01,-3.598381971085552209e+02,-3.598397834157543116e+02,-3.598514355628719272e+02
1.076465213629834778e+02,4.008639342601863120e+01,3.415136948207860002e+01,2.082781993162267753e+01,-3.598411503284126525e+02,-3.598427076822424056e+02,-3.598541471537186567e+02
1.096478196143185215e+02,4.008639465762249188e+01,3.415137071332964780e+01,2.082782115316767246e+01,-3.598440496467790126e+02,-3.598455785756980276e+02,-3.598568092533001277e+02
1.116863247780561181e+02,4.008639584467836414e+01,3.415137190004547563e+01,2.082782233052851240e+01,-3.598468960474218648e+02,-3.598483970702432657e+02,-3.598594227648882793e+02
1.137627285823431009e+02,4.008639698879758129e+01,3.415137304383693362e+01,2.082782346530337136e+01,-3.598496904961555174e+02,-3.598511641222229400e+02,-3.598619885752710275e+02
1.158777356155126341e+02,4.008639809153316946e+01,3.415137414625662871e+01,2.082782455903259944e+01,-3.598524339411684991e+02,-3.598538806705290654e+02,-3.598645075550526826e+02
1.180320635651729759e+02,4.008639915438200774e+01,3.415137520880098521e+01,2.082782561320084014e+01,-3.598551273133450650e+02,-3.598565476369188900e+02,-3.598669805589495923e+02
1.202264434617412974e+02,4.008640017878679629e+01,3.415137623291232671e+01,2.082782662923903416e+01,-3.598577715265809047e+02,-3.598591659263281031e+02,-3.598694084260797581e+02
1.224616199265048948e+02,4.008640116613810989e+01,3.415137721998078746e+01,2.082782760852635917e+01,-3.598603674780934512e+02,-3.598617364271770498e+02,-3.598717919802476217e+02
1.247383514242943221e+02,4.008640211777616713e+01,3.415137817134623077e+01,2.082782855239212338e+01,-3.598629160487256513e+02,-3.598642600116726840e+02,-3.598741320302231657e+02
1.270574105208541908e+02,4.008640303499273472e+01,3.415137908830005387e+01,2.082782946211753483e+01,-3.598654181032453039e+02,-3.598667375361040968e+02,-3.598764293700165808e+02
1.294195841449986233e+02,4.008640391903288247e+01,3.415137997208694998e+01,2.082783033893747060e+01,-3.598678744906377460e+02,-3.598691698411328730e+02,-3.598786847791473065e+02
1.318256738556407299e+02,4.008640477109659628e+01,3.415138082390657814e+01,2.082783118404215017e+01,-3.598702860443943905e+02,-3.598715577520785018e+02,-3.598808990229085225e+02
1.342764961137864077e+02,4.008640559234049761e+01,3.415138164491521877e+01,2.082783199857872347e+01,-3.598726535827951807e+02,-3.598739020791982171e+02,-3.598830728526268103e+02
1.367728825595849571e+02,4.008640638387934985e+01,3.415138243622731551e+01,2.082783278365285895e+01,-3.598749779091860432e+02,-3.598762036179616643e+02,-3.598852070059167545e+02
1.393156802945303525e+02,4.008640714678760730e+01,3.415138319891702423e+01,2.082783354033023215e+01,-3.598772598122516797e+02,-3.598784631493209076e+02,-3.598873022069314516e+02
1.419057521689092596e+02,4.008640788210085759e+01,3.415138393401962702e+01,2.082783426963798235e+01,-3.598795000662827874e+02,-3.598806814399753193e+02,-3.598893591666078464e+02
1.445439770745927888e+02,4.008640859081721430e+01,3.415138464253296746e+01,2.082783497256606253e+01,-3.598816994314390172e+02,-3.598828592426316959e+02,-3.598913785829080325e+02
1.472312502432719441e+02,4.008640927389873099e+01,3.415138532541880068e+01,2.082783565006866766e+01,-3.598838586540065876e+02,-3.598849972962592574e+02,-3.598933611410560616e+02
1.499684835502374085e+02,4.008640993227260907e+01,3.415138598360407940e+01,2.082783630306543898e+01,-3.598859784666514088e+02,-3.598870963263408953e+02,-3.598953075137702058e+02
1.527566058238073197e+02,4.008641056683256920e+01,3.415138661798226138e+01,2.082783693244277856e+01,-3.598880595886680567e+02,-3.598891570451187931e+02,-3.598972183614913547e+02
1.555965631605075146e+02,4.008641117843995971e+01,3.415138722941443916e+01,2.082783753905500745e+01,-3.598901027262230627e+02,-3.598911801518361813e+02,-3.598990943326068646e+02
1.584893192461114211e+02,4.008641176792500005e+01,3.415138781873061191e+01,2.082783812372557009e+01,-3.598921085725951912e+02,-3.598931663329746584e+02,-3.599009360636705992e+02
1.614358556826487074e+02,4.008641233608786081e+01,3.415138838673071575e+01,2.082783868724808940e+01,-3.598940778084100884e+02,-3.598951162624869085e+02,-3.599027441796189919e+02
1.644371723214932786e+02,4.008641288369979350e+01,3.415138893418577481e+01,2.082783923038753215e+01,-3.598960111018716361e+02,-3.598970306020254384e+02,-3.599045192939826165e+02
1.674942876026438228e+02,4.008641341150412529e+01,3.415138946183890312e+01,2.082783975388114683e+01,-3.598979091089880171e+02,-3.598989100011669393e+02,-3.599062620090949736e+02
1.706082389003124433e+02,4.008641392021732486e+01,3.415138997040637037e+01,2.082784025843955789e+01,-3.598997724737949966e+02,-3.599007550976328389e+02,-3.599079729162962167e+02
1.737800828749376478e+02,4.008641441052992604e+01,3.415139046057851857e+01,2.082784074474764324e+01,-3.599016018285738028e+02,-3.599025665175054769e+02,-3.599096525961340944e+02
1.770108958317422037e+02,4.008641488310749423e+01,3.415139093302070705e+01,2.082784121346555395e+01,-3.599033977940661089e+02,-3.599043448754404722e+02,-3.599113016185607989e+02
1.803017740859569926e+02,4.008641533859151451e+01,3.415139138837425037e+01,2.082784166522951708e+01,-3.599051609796842399e+02,-3.599060907748753380e+02,-3.599129205431263472e+02
1.836538343348347553e+02,4.008641577760027985e+01,3.415139182725725675e+01,2.082784210065278785e+01,-3.599068919837179692e+02,-3.599078048082343457e+02,-3.599145099191683812e+02
1.870682140365801729e+02,4.008641620072971534e+01,3.415139225026547365e+01,2.082784252032641703e+01,-3.599085913935378471e+02,-3.599094875571291254e+02,-3.599160702859986145e+02
1.905460717963248385e+02,4.008641660855418110e+01,3.415139265797311907e+01,2.082784292482007515e+01,-3.599102597857940964e+02,-3.599111395925564238e+02,-3.599176021730856405e+02
1.940885877592779707e+02,4.008641700162727517e+01,3.415139305093361344e+01,2.082784331468284478e+01,-3.599118977266123238e+02,-3.599127614750915427e+02,-3.599191061002346714e+02
1.976969640111861963e+02,4.008641738048257253e+01,3.415139342968036829e+01,2.082784369044392747e+01,-3.599135057717857649e+02,-3.599143537550785368e+02,-3.599205825777639802e+02
2.013724249862389399e+02,4.008641774563432847e+01,3.415139379472752523e+01,2.082784405261340055e+01,-3.599150844669636626e+02,-3.599159169728170582e+02,-3.599220321066777046e+02
2.051162178825566684e+02,4.008641809757821761e+01,3.415139414657059547e+01,2.082784440168287787e+01,-3.599166343478364070e+02,-3.599174516587456196e+02,-3.599234551788362069e+02
2.089296130854040712e+02,4.008641843679197336e+01,3.415139448568718450e+01,2.082784473812619197e+01,-3.599181559403174901e+02,-3.599189583336213900e+02,-3.599248522771229091e+02
2.128139045982713355e+02,4.008641876373607715e+01,3.415139481253761744e+01,2.082784506240005840e+01,-3.599196497607216543e+02,-3.599204375086972618e+02,-3.599262238756076044e+02
2.167704104819696340e+02,4.008641907885430555e+01,3.415139512756557849e+01,2.082784537494463706e+01,-3.599211163159401394e+02,-3.599218896858948824e+02,-3.599275704397080631e+02
2.208004733018901504e+02,4.008641938257441950e+01,3.415139543119869359e+01,2.082784567618420013e+01,-3.599225561036128624e+02,-3.599233153579751274e+02,-3.599288924263473746e+02
2.249054605835782752e+02,4.008641967530870431e+01,3.415139572384912015e+01,2.082784596652765075e+01,-3.599239696122969576e+02,-3.599247150087052773e+02,-3.599301902841091874e+02
2.290867652767774700e+02,4.008641995745453102e+01,3.415139600591411551e+01,2.082784624636911275e+01,-3.599253573216328164e+02,-3.599260891130234086e+02,-3.599314644533898218e+02
2.333458062281004572e+02,4.008642022939487504e+01,3.415139627777656273e+01,2.082784651608845650e+01,-3.599267197025065457e+02,-3.599274381371989762e+02,-3.599327153665479386e+02
2.376840286624878331e+02,4.008642049149889885e+01,3.415139653980548928e+01,2.082784677605180690e+01,-3.599280572172099824e+02,-3.599287625389915206e+02,-3.599339434480507975e+02
2.421029046736180135e+02,4.008642074412236411e+01,3.415139679235659287e+01,2.082784702661203724e+01,-3.599293703195974672e+02,-3.599300627678056799e+02,-3.599351491146185822e+02
2.466039337234341247e+02,4.008642098760820716e+01,3.415139703577269614e+01,2.082784726810928078e+01,-3.599306594552397200e+02,-3.599313392648438139e+02,-3.599363327753658268e+02
2.511886431509582280e+02,4.008642122228694404e+01,3.415139727038420858e+01,2.082784750087133929e+01,-3.599319250615751571e+02,-3.599325924632556166e+02,-3.599374948319399437e+02
2.558585886905647726e+02,4.008642144847713951e+01,3.415139749650960255e+01,2.082784772521418049e+01,-3.599331675680581952e+02,-3.599338227882851697e+02,-3.599386356786578176e+02
2.606153549998897461e+02,4.008642166648583327e+01,3.415139771445583250e+01,2.082784794144233587e+01,-3.599343873963051124e+02,-3.599350306574152114e+02,-3.599397557026393883e+02
2.654605561975541832e+02,4.008642187660893796e+01,3.415139792451875422e+01,2.082784814984931643e+01,-3.599355849602370085e+02,-3.599362164805086763e+02,-3.599408552839389586e+02
2.703958364108846126e+02,4.008642207913169386e+01,3.415139812698349431e+01,2.082784835071802121e+01,-3.599367606662202093e+02,-3.599373806599478485e+02,-3.599419347956743991e+02
2.754228703338168884e+02,4.008642227432901706e+01,3.415139832212489779e+01,2.082784854432112098e+01,-3.599379149132042244e+02,-3.599385235907710126e+02,-3.599429946041534549e+02
2.805433637951716150e+02,4.008642246246586893e+01,3.415139851020785500e+01,2.082784873092141709e+01,-3.599390480928569787e+02,-3.599396456608062067e+02,-3.599440350689982324e+02
2.857590543374949448e+02,4.008642264379763276e+01,3.415139869148767815e+01,2.082784891077220379e+01,-3.599401605896979390e+02,-3.599407472508028718e+02,-3.599450565432671851e+02
2.910717118066608009e+02,4.008642281857046186e+01,3.415139886621043530e+01,2.082784908411761648e+01,-3.599412527812283997e+02,-3.599418287345614544e+02,-3.599460593735747125e+02
2.964831389524345582e+02,4.008642298702159934e+01,3.415139903461331272e+01,2.082784925119296560e+01,-3.599423250380596642e+02,-3.599428904790596562e+02,-3.599470439002091098e+02
3.019951720402019077e+02,4.008642314937969076e+01,3.415139919692489912e+01,2.082784941222504216e+01,-3.599433777240386121e+02,-3.599439328445772617e+02,-3.599480104572477330e+02
3.076096814740711238e+02,4.008642330586513935e+01,3.415139935336551957e+01,2.082784956743243399e+01,-3.599444111963713908e+02,-3.599449561848183521e+02,-3.599489593726705721e+02
3.133285724315588823e+02,4.008642345669035478e+01,3.415139950414753400e+01,2.082784971702583121e+01,-3.599454258057445486e+02,-3.599459608470313015e+02,-3.599498909684712089e+02
3.191537855100764887e+02,4.008642360206010125e+01,3.415139964947562135e+01,2.082784986120829629e+01,-3.599464218964438373e+02,-3.599469471721265563e+02,-3.599508055607665256e+02
3.250872973854347379e+02,4.008642374217166804e+01,3.415139978954706379e+01,2.082785000017554466e+01,-3.599473998064714806e+02,-3.599479154947924826e+02,-3.599517034599035128e+02
3.311311214825913680e+02,4.008642387721526745e+01,3.415139992455197415e+01,2.082785013411621122e+01,-3.599483598676602583e+02,-3.599488661436086545e+02,-3.599525849705650558e+02
3.372873086588692217e+02,4.008642400737421951e+01,3.415140005467363693e+01,2.082785026321212030e+01,-3.599493024057866251e+02,-3.599497994411575519e+02,-3.599534503918727637e+02
3.435579478998749892e+02,4.008642413282519357e+01,3.415140018008867884e+01,2.082785038763850594e+01,-3.599502277406808730e+02,-3.599507157041338701e+02,-3.599543000174890608e+02
3.499451670283576732e+02,4.008642425373849250e+01,3.415140030096733881e+01,2.082785050756427836e+01,-3.599511361863358729e+02,-3.599516152434521814e+02,-3.599551341357160936e+02
3.564511334262446667e+02,4.008642437027823746e+01,3.415140041747370248e+01,2.082785062315221580e+01,-3.599520280510137127e+02,-3.599524983643522660e+02,-3.599559530295943546e+02
3.630780547701017440e+02,4.008642448260262370e+01,3.415140052976590823e+01,2.082785073455922742e+01,-3.599529036373499480e+02,-3.599533653665025668e+02,-3.599567569769981787e+02
3.698281797802666233e+02,4.008642459086414078e+01,3.415140063799641013e+01,2.082785084193654157e+01,-3.599537632424565459e+02,-3.599542165441023371e+02,-3.599575462507302177e+02
3.767037989839092802e+02,4.008642469520972895e+01,3.415140074231211287e+01,2.082785094542991899e+01,-3.599546071580225544e+02,-3.599550521859809464e+02,-3.599583211186139238e+02
3.837072454922792417e+02,4.008642479578104201e+01,3.415140084285461342e+01,2.082785104517984109e+01,-3.599554356704133511e+02,-3.599558725756961053e+02,-3.599590818435846700e+02
3.908408957924024776e+02,4.008642489271459652e+01,3.415140093976039992e+01,2.082785114132171245e+01,-3.599562490607674476e+02,-3.599566779916300447e+02,-3.599598286837785395e+02
3.981071705534977241e+02,4.008642498614196370e+01,3.415140103316100806e+01,2.082785123398604199e+01,-3.599570476050921570e+02,-3.599574687070841605e+02,-3.599605618926202624e+02
4.055085354483843503e+02,4.008642507618998252e+01,3.415140112318321997e+01,2.082785132329861000e+01,-3.599578315743570442e+02,-3.599582449903715542e+02,-3.599612817189091629e+02
4.130475019901610381e+02,4.008642516298087344e+01,3.415140120994924899e+01,2.082785140938065993e+01,-3.599586012345860695e+02,-3.599590071049079256e+02,-3.599619884069035152e+02
4.207266283844437567e+02,4.008642524663245155e+01,3.415140129357686760e+01,2.082785149234904054e+01,-3.599593568469477418e+02,-3.599597553093013289e+02,-3.599626821964031933e+02
4.285485203974392334e+02,4.008642532725828289e+01,3.415140137417959920e+01,2.082785157231637285e+01,-3.599600986678436243e+02,-3.599604898574397112e+02,-3.599633633228315830e+02
4.365158322401656505e+02,4.008642540496779105e+01,3.415140145186684606e+01,2.082785164939121358e+01,-3.599608269489957593e+02,-3.599612109985770303e+02,-3.599640320173149917e+02
4.446312674691083657e+02,4.008642547986647031e+01,3.415140152674407403e+01,2.082785172367817950e+01,-3.599615419375314787e+02,-3.599619189774178949e+02,-3.599646885067612629e+02
4.528975799036204535e+02,4.008642555205599933e+01,3.415140159891292626e+01,2.082785179527812147e+01,-3.599622438760676459e+02,-3.599626140342006124e+02,-3.599653330139367995e+02
4.613175745603790574e+02,4.008642562163436196e+01,3.415140166847135106e+01,2.082785186428821689e+01,-3.599629330027930791e+02,-3.599632964047786459e+02,-3.599659657575419374e+02
4.698941086052150808e+02,4.008642568869600353e+01,3.415140173551377956e+01,2.082785193080215436e+01,-3.599636095515489274e+02,-3.599639663207008198e+02,-3.599665869522854678e+02
4.786300923226380064e+02,4.008642575333196589e+01,3.415140180013123228e+01,2.082785199491021899e+01,-3.599642737519085927e+02,-3.599646240092895937e+02,-3.599671968089573397e+02
4.875284901033859910e+02,4.008642581562997975e+01,3.415140186241139730e+01,2.082785205669942741e+01,-3.599649258292550371e+02,-3.599652696937183123e+02,-3.599677955345001124e+02
4.965923214503357599e+02,4.008642587567462101e+01,3.415140192243883632e+01,2.082785211625366983e+01,-3.599655660048577488e+02,-3.599659035930872051e+02,-3.599683833320792701e+02
5.058246620031137581e+02,4.008642593354738892e+01,3.415140198029502017e+01,2.082785217365377051e+01,-3.599661944959474340e+02,-3.599665259224973397e+02,-3.599689604011520601e+02
5.152286445817561571e+02,4.008642598932684109e+01,3.415140203605849933e+01,2.082785222897765820e+01,-3.599668115157900843e+02,-3.599671368931237225e+02,-3.599695269375354769e+02
5.248074602497722481e+02,4.008642604308868584e+01,3.415140208980494663e+01,2.082785228230042662e+01,-3.599674172737591675e+02,-3.599677367122871487e+02,-3.599700831334722579e+02
5.345643593969713265e+02,4.008642609490592434e+01,3.415140214160733478e+01,2.082785233369445876e+01,-3.599680119754065686e+02,-3.599683255835244040e+02,-3.599706291776963099e+02
5.445026528424208436e+02,4.008642614484887901e+01,3.415140219153598622e+01,2.082785238322951926e+01,-3.599685958225325066e+02,-3.599689037066571018e+02,-3.599711652554970556e+02
5.546257129579104230e+02,4.008642619298534981e+01,3.415140223965867250e+01,2.082785243097284678e+01,-3.599691690132540316e+02,-3.599694712778600092e+02,-3.599716915487817914e+02
5.649369748123021964e+02,4.008642623938068539e+01,3.415140228604071382e+01,2.082785247698925701e+01,-3.599697317420719855e+02,-3.599700284897271558e+02,-3.599722082361376465e+02
5.754399373371566071e+02,4.008642628409784692e+01,3.415140233074506426e+01,2.082785252134121023e+01,-3.599702841999373391e+02,-3.599705755313374311e+02,-3.599727154928922914e+02
5.861381645140285173e+02,4.008642632719755028e+01,3.415140237383241839e+01,2.082785256408890362e+01,-3.599708265743158222e+02,-3.599711125883185900e+02,-3.599732134911732828e+02
5.970352865838366370e+02,4.008642636873829446e+01,3.415140241536126808e+01,2.082785260529037430e+01,-3.599713590492514754e+02,-3.599716398429103492e+02,-3.599737023999665553e+02
6.081350012787175956e+02,4.008642640877646812e+01,3.415140245538796648e+01,2.082785264500154554e+01,-3.599718818054291773e+02,-3.599721574740262326e+02,-3.599741823851735489e+02
6.194410750767812033e+02,4.008642644736642779e+01,3.415140249396687011e+01,2.082785268327633332e+01,-3.599723950202360925e+02,-3.599726656573141668e+02,-3.599746536096678824e+02
6.309573444801930009e+02,4.008642648456054758e+01,3.415140253115033886e+01,2.082785272016668188e+01,-3.599728988678215273e+02,-3.599731645652162797e+02,-3.599751162333503771e+02
6.426877173170194055e+02,4.008642652040931864e+01,3.415140256698884258e+01,2.082785275572266670e+01,-3.599733935191563319e+02,-3.599736543670270521e+02,-3.599755704132032861e+02
6.546361740672747374e+02,4.008642655496140605e+01,3.415140260153103213e+01,2.082785278999256207e+01,-3.599738791420907660e+02,-3.599741352289512974e+02,-3.599760163033435560e+02
6.668067692136219193e+02,4.008642658826371274e+01,3.415140263482379623e+01,2.082785282302287655e+01,-3.599743559014114567e+02,-3.599746073141600391e+02,-3.599764540550753509e+02
6.792036326171842120e+02,4.008642662036144344e+01,3.415140266691232540e+01,2.082785285485845606e+01,-3.599748239588974457e+02,-3.599750707828462168e+02,-3.599768838169412106e+02
6.918309709189362593e+02,4.008642665129816152e+01,3.415140269784019011e+01,2.082785288554251224e+01,-3.599752834733749296e+02,-3.599755257922789156e+02,-3.599773057347723011e+02
7.046930689671467007e+02,4.008642668111587426e+01,3.415140272764935503e+01,2.082785291511669001e+01,-3.599757346007711476e+02,-3.599759724968566275e+02,-3.599777199517383224e+02
7.177942912713615442e+02,4.008642670985504708e+01,3.415140275638029976e+01,2.082785294362114925e+01,-3.599761774941674162e+02,-3.599764110481600596e+02,-3.599781266083956552e+02
7.311390834834173802e+02,4.008642673755470298e+01,3.415140278407201890e+01,2.082785297109456835e+01,-3.599766123038510273e+02,-3.599768415950028952e+02,-3.599785258427353938e+02
7.447319739059888661e+02,4.008642676425242968e+01,3.415140281076210016e+01,2.082785299757425435e+01,-3.599770391773662936e+02,-3.599772642834829526e+02,-3.599789177902299002e+02
7.585775750291835493e+02,4.008642678998447906e+01,3.415140283648677411e+01,2.082785302309613940e+01,-3.599774582595643437e+02,-3.599776792570312978e+02,-3.599793025838789617e+02
7.726805850957022130e+02,4.008642681478576719e+01,3.415140286128095681e+01,2.082785304769487311e+01,-3.599778696926526322e+02,-3.599780866564612438e+02,-3.599796803542548105e+02
7.870457896950985059e+02,4.008642683868997381e+01,3.415140288517832090e+01,2.082785307140385100e+01,-3.599782736162430865e+02,-3.599784866200159286e+02,-3.599800512295465182e+02
8.016780633876788897e+02,4.008642686172954228e+01,3.415140290821128843e+01,2.082785309425524645e+01,-3.599786701673992866e+02,-3.599788792834151536e+02,-3.599804153356034817e+02
8.165823713585922405e+02,4.008642688393574360e+01,3.415140293041113040e+01,2.082785311628008529e+01,-3.599790594806831905e+02,-3.599792647799015981e+02,-3.599807727959779413e+02
8.317637711026708303e+02,4.008642690533872610e+01,3.415140295180798091e+01,2.082785313750827072e+01,-3.599794416882008363e+02,-3.599796432402862365e+02,-3.599811237319672159e+02
8.472274141405963519e+02,4.008642692596754387e+01,3.415140297243088696e+01,2.082785315796860459e+01,-3.599798169196469644e+02,-3.599800147929921650e+02,-3.599814682626546869e+02
8.629785477669702232e+02,4.008642694585019939e+01,3.415140299230784393e+01,2.082785317768887268e+01,-3.599801853023490708e+02,-3.599803795640987119e+02,-3.599818065049501001e+02
8.790225168308842285e+02,4.008642696501367908e+01,3.415140301146583113e+01,2.082785319669583401e+01,-3.599805469613107221e+02,-3.599807376773838428e+02,-3.599821385736295269e+02
8.953647655495936988e+02,4.008642698348399591e+01,3.415140302993086152e+01,2.082785321501530262e+01,-3.599809020192539606e+02,-3.599810892543664522e+02,-3.599824645813740744e+02
9.120108393559096385e+02,4.008642700128622494e+01,3.415140304772798885e+01,2.082785323267213329e+01,-3.599812505966608569e+02,-3.599814344143474045e+02,-3.599827846388081412e+02
9.289663867799363288e+02,4.008642701844452461e+01,3.415140306488137867e+01,2.082785324969030327e+01,-3.599815928118144939e+02,-3.599817732744501200e+02,-3.599830988545370474e+02
9.462371613657928719e+02,4.008642703498219362e+01,3.415140308141430836e+01,2.082785326609290522e+01,-3.599819287808388708e+02,-3.599821059496602516e+02,-3.599834073351839834e+02
9.638290236239706701e+02,4.008642705092167802e+01,3.415140309734923107e+01,2.082785328190221108e+01,-3.599822586177388075e+02,-3.599824325528647364e+02,-3.599837101854257071e+02
9.817479430199844046e+02,4.008642706628462804e+01,3.415140311270776863e+01,2.082785329713967570e+01,-3.599825824344379726e+02,-3.599827531948901083e+02,-3.599840075080287534e+02
9.999999999999998863e+02,4.008642708109186970e+01,3.415140312751077545e+01,2.082785331182599364e+01,-3.599829003408174799e+02,-3.599830679845400141e+02,-3.599842994038838810e+02
1.018591388054117033e+03,4.008642709536352555e+01,3.415140314177834568e+01,2.082785332598108852e+01,-3.599832124447526098e+02,-3.599833770286323897e+02,-3.599845859720402359e+02
1.037528415818012718e+03,4.008642710911896501e+01,3.415140315552983452e+01,2.082785333962418051e+01,-3.599835188521499276e+02,-3.599836804320354418e+02,-3.599848673097392862e+02
1.056817509213658468e+03,4.008642712237684691e+01,3.415140316878392923e+01,2.082785335277378636e+01,-3.599838196669829813e+02,-3.599839782977031746e+02,-3.599851435124475643e+02
1.076465213629835034e+03,4.008642713515519063e+01,3.415140318155860655e+01,2.082785336544775845e+01,-3.599841149913274307e+02,-3.599842707267106903e+02,-3.599854146738891814e+02
1.096478196143185187e+03,4.008642714747131919e+01,3.415140319387121082e+01,2.082785337766330258e+01,-3.599844049253960065e+02,-3.599845578182881241e+02,-3.599856808860775459e+02
1.116863247780561096e+03,4.008642715934196588e+01,3.415140320573845401e+01,2.082785338943700282e+01,-3.599846895675721612e+02,-3.599848396698545798e+02,-3.599859422393466843e+02
1.137627285823431066e+03,4.008642717078323869e+01,3.415140321717645122e+01,2.082785340078483216e+01,-3.599849690144438910e+02,-3.599851163770508720e+02,-3.599861988223818230e+02
1.158777356155126199e+03,4.008642718181066300e+01,3.415140322820072782e+01,2.082785341172219518e+01,-3.599852433608361366e+02,-3.599853880337723808e+02,-3.599864507222494581e+02
1.180320635651729845e+03,4.008642719243922414e+01,3.415140323882623363e+01,2.082785342226394931e+01,-3.599855126998430137e+02,-3.599856547322006008e+02,-3.599866980244270849e+02
1.202264434617413144e+03,4.008642720268333903e+01,3.415140324906741398e+01,2.082785343242439779e+01,-3.599857771228596448e+02,-3.599859165628345750e+02,-3.599869408128319037e+02
1.224616199265048863e+03,4.008642721255691299e+01,3.415140325893815287e+01,2.082785344221732871e+01,-3.599860367196129687e+02,-3.599861736145215332e+02,-3.599871791698495258e+02
1.247383514242943193e+03,4.008642722207334685e+01,3.415140326845187246e+01,2.082785345165604340e+01,-3.599862915781921515e+02,-3.599864259744869628e+02,-3.599874131763618834e+02
1.270574105208541823e+03,4.008642723124556539e+01,3.415140327762146200e+01,2.082785346075334942e+01,-3.599865417850784866e+02,-3.599866737283645080e+02,-3.599876429117745147e+02
1.294195841449986347e+03,4.008642724008601732e+01,3.415140328645937728e+01,2.082785346952159955e+01,-3.599867874251750095e+02,-3.599869169602246757e+02,-3.599878684540439053e+02
1.318256738556407527e+03,4.008642724860670370e+01,3.415140329497761229e+01,2.082785347797269182e+01,-3.599870285818349771e+02,-3.599871557526035986e+02,-3.599880898797034092e+02
1.342764961137864248e+03,4.008642725681917796e+01,3.415140330318774886e+01,2.082785348611809439e+01,-3.599872653368903457e+02,-3.599873901865307744e+02,-3.599883072638896238e+02
1.367728825595849457e+03,4.008642726473460982e+01,3.415140331110090699e+01,2.082785349396887753e+01,-3.599874977706793970e+02,-3.599876203415570899e+02,-3.599885206803676851e+02
1.393156802945303525e+03,4.008642727236372139e+01,3.415140331872783719e+01,2.082785350153568515e+01,-3.599877259620740801e+02,-3.599878462957811394e+02,-3.599887302015563932e+02
1.419057521689092709e+03,4.008642727971689368e+01,3.415140332607889917e+01,2.082785350882879527e+01,-3.599879499885067844e+02,-3.599880681258761683e+02,-3.599889358985528816e+02
1.445439770745927945e+03,4.008642728680408140e+01,3.415140333316406895e+01,2.082785351585810929e+01,-3.599881699259966581e+02,-3.599882859071160510e+02,-3.599891378411564347e+02
1.472312502432719384e+03,4.008642729363493373e+01,3.415140333999295308e+01,2.082785352263316625e+01,-3.599883858491753017e+02,-3.599884997134006994e+02,-3.599893360978924761e+02
1.499684835502373971e+03,4.008642730021869482e+01,3.415140334657483123e+01,2.082785352916315702e+01,-3.599885978313121200e+02,-3.599887096172811880e+02,-3.599895307360355332e+02
1.527566058238073538e+03,4.008642730656432462e+01,3.415140335291863494e+01,2.082785353545695628e+01,-3.599888059443391626e+02,-3.599889156899844238e+02,-3.599897218216324291e+02
1.555965631605075032e+03,4.008642731268041359e+01,3.415140335903298308e+01,2.082785354152310120e+01,-3.599890102588757372e+02,-3.599891180014371912e+02,-3.599899094195244516e+02
1.584893192461113813e+03,4.008642731857528929e+01,3.415140336492616768e+01,2.082785354736982697e+01,-3.599892108442519998e+02,-3.599893166202900261e+02,-3.599900935933692949e+02
1.614358556826486847e+03,4.008642732425693112e+01,3.415140337060618947e+01,2.082785355300507746e+01,-3.599894077685328284e+02,-3.599895116139406355e+02,-3.599902744056629444e+02
1.644371723214932672e+03,4.008642732973307687e+01,3.415140337608075782e+01,2.082785355843648745e+01,-3.599896010985406747e+02,-3.599897030485561231e+02,-3.599904519177605380e+02
1.674942876026437943e+03,4.008642733501113753e+01,3.415140338135729792e+01,2.082785356367143947e+01,-3.599897908998784715e+02,-3.599898909890964660e+02,-3.599906261898974549e+02
1.706082389003124263e+03,4.008642734009828956e+01,3.415140338644299334e+01,2.082785356871703897e+01,-3.599899772369516882e+02,-3.599900754993355463e+02,-3.599907972812096091e+02
1.737800828749376251e+03,4.008642734500142524e+01,3.415140339134472924e+01,2.082785357358013556e+01,-3.599901601729901586e+02,-3.599902566418834340e+02,-3.599909652497536285e+02
1.770108958317422321e+03,4.008642734972721655e+01,3.415140339606917053e+01,2.082785357826733019e+01,-3.599903397700699088e+02,-3.599904344782073622e+02,-3.599911301525263525e+02
1.803017740859569813e+03,4.008642735428207260e+01,3.415140340062271207e+01,2.082785358278498222e+01,-3.599905160891336209e+02,-3.599906090686528728e+02,-3.599912920454844993e+02
1.836538343348347325e+03,4.008642735867216800e+01,3.415140340501155691e+01,2.082785358713923074e+01,-3.599906891900120627e+02,-3.599907804724637685e+02,-3.599914509835633680e+02
1.870682140365801615e+03,4.008642736290347131e+01,3.415140340924165230e+01,2.082785359133597325e+01,-3.599908591314434716e+02,-3.599909487478026335e+02,-3.599916070206954259e+02
1.905460717963248271e+03,4.008642736698172371e+01,3.415140341331873941e+01,2.082785359538092251e+01,-3.599910259710943592e+02,-3.599911139517706715e+02,-3.599917602098291241e+02
1.940885877592779025e+03,4.008642737091246744e+01,3.415140341724835338e+01,2.082785359927955682e+01,-3.599911897655786106e+02,-3.599912761404265780e+02,-3.599919106029461773e+02
1.976969640111861963e+03,4.008642737470103157e+01,3.415140342103583038e+01,2.082785360303717681e+01,-3.599913505704767545e+02,-3.599914353688060942e+02,-3.599920582510795839e+02
2.013724249862389570e+03,4.008642737835256042e+01,3.415140342468630763e+01,2.082785360665888064e+01,-3.599915084403548349e+02,-3.599915916909401972e+02,-3.599922032043309628e+02
2.051162178825566571e+03,4.008642738187199939e+01,3.415140342820474473e+01,2.082785361014958170e+01,-3.599916634287830561e+02,-3.599917451598740286e+02,-3.599923455118874926e+02
2.089296130854040712e+03,4.008642738526415172e+01,3.415140343159591652e+01,2.082785361351402287e+01,-3.599918155883538020e+02,-3.599918958276841749e+02,-3.599924852220385674e+02
2.128139045982713469e+03,4.008642738853360044e+01,3.415140343486442731e+01,2.082785361675676938e+01,-3.599919649706994846e+02,-3.599920437454970283e+02,-3.599926223821920530e+02
2.167704104819696113e+03,4.008642739168478641e+01,3.415140343801471801e+01,2.082785361988222306e+01,-3.599921116265101659e+02,-3.599921889635056118e+02,-3.599927570388907156e+02
2.208004733018901334e+03,4.008642739472199423e+01,3.415140344105105186e+01,2.082785362289462228e+01,-3.599922556055507243e+02,-3.599923315309870304e+02,-3.599928892378277965e+02
