wout,mag_simplified_0,mag_simplified_1,phase_simplified_0,phase_simplified_1
1.000000000000000021e-02,1.641779839776343763e+01,1.041149862237288382e+01,-9.379603599301677264e+01,-9.190010312306341689e+01
1.018591388054116906e-02,1.657708408457780891e+01,1.057131944405853119e+01,-9.386639746152928865e+01,-9.193540205689910749e+01
1.037528415818012723e-02,1.673634308851330132e+01,1.073113354927932761e+01,-9.393805504093883485e+01,-9.197135573581059020e+01
1.056817509213658565e-02,1.689557441765228418e+01,1.089094068657372105e+01,-9.401103214989927892e+01,-9.200797624669741026e+01
1.076465213629834890e-02,1.705477704356923496e+01,1.105074059508875095e+01,-9.408535260435156999e+01,-9.204527589631410933e+01
1.096478196143185063e-02,1.721394990001483905e+01,1.121053300423108112e+01,-9.416104062278488129e+01,-9.208326721508292678e+01
1.116863247780561230e-02,1.737309188155484208e+01,1.137031763330518785e+01,-9.423812083147883811e+01,-9.212196296096193748e+01
1.137627285823430978e-02,1.753220184216217703e+01,1.153009419113826795e+01,-9.431661826971965468e+01,-9.216137612336865459e+01
1.158777356155126122e-02,1.769127859376094491e+01,1.168986237569136399e+01,-9.439655839498369971e+01,-9.220151992715939571e+01
1.180320635651730017e-02,1.785032090472085642e+01,1.184962187365625397e+01,-9.447796708808040478e+01,-9.224240783666436982e+01
1.202264434617413176e-02,1.800932749830052870e+01,1.200937236003750641e+01,-9.456087065824684146e+01,-9.228405355977848501e+01
1.224616199265048978e-02,1.816829705103824111e+01,1.216911349771930517e+01,-9.464529584818529884e+01,-9.232647105210787686e+01
1.247383514242943192e-02,1.832722819108858658e+01,1.232884493701638107e+01,-9.473126983903459575e+01,-9.236967452117218613e+01
1.270574105208541887e-02,1.848611949650333131e+01,1.248856631520854243e+01,-9.481882025526546443e+01,-9.241367843066204557e+01
1.294195841449986319e-02,1.864496949345508270e+01,1.264827725605820774e+01,-9.490797516948995849e+01,-9.245849750475206008e+01
1.318256738556407466e-02,1.880377665440198598e+01,1.280797736931037178e+01,-9.499876310717364447e+01,-9.250414673246839925e+01
1.342764961137864199e-02,1.896253939619189666e+01,1.296766625017430563e+01,-9.509121305123906609e+01,-9.255064137211120112e+01
1.367728825595849670e-02,1.912125607810432371e+01,1.312734347878644137e+01,-9.518535444654843047e+01,-9.259799695573079248e+01
1.393156802945303557e-02,1.927992499982851982e+01,1.328700861965370628e+01,-9.528121720425191654e+01,-9.264622929365754089e+01
1.419057521689091883e-02,1.943854439937594591e+01,1.344666122107668116e+01,-9.537883170598858840e+01,-9.269535447908440062e+01
1.445439770745927249e-02,1.959711245092548992e+01,1.360630081455179941e+01,-9.547822880792460865e+01,-9.274538889270165498e+01
1.472312502432718793e-02,1.975562726259964208e+01,1.376592691415195091e+01,-9.557943984461373077e+01,-9.279634920738270409e+01
1.499684835502373276e-02,1.991408687416995704e+01,1.392553901588466481e+01,-9.568249663266374228e+01,-9.284825239292020171e+01
1.527566058238072171e-02,2.007248925469006195e+01,1.408513659702711962e+01,-9.578743147419135084e+01,-9.290111572081110580e+01
1.555965631605074270e-02,2.023083230005446964e+01,1.424471911543720815e+01,-9.589427716004774993e+01,-9.295495676908969074e+01
1.584893192461113431e-02,2.038911383048147030e+01,1.440428600883976351e+01,-9.600306697279543755e+01,-9.300979342720691534e+01
1.614358556826486074e-02,2.054733158791843906e+01,1.456383669408718440e+01,-9.611383468941590991e+01,-9.306564390095482509e+01
1.644371723214931372e-02,2.070548323336779362e+01,1.472337056639349662e+01,-9.622661458372743937e+01,-9.312252671743408428e+01
1.674942876026437252e-02,2.086356634413197497e+01,1.488288699854102859e+01,-9.634144142849004311e+01,-9.318046073006284757e+01
1.706082389003123548e-02,2.102157841097579194e+01,1.504238534005866512e+01,-9.645835049717419452e+01,-9.323946512362491035e+01
1.737800828749375484e-02,2.117951683520450956e+01,1.520186491637086590e+01,-9.657737756536863571e+01,-9.329955941935519093e+01
1.770108958317421002e-02,2.133737892565610750e+01,1.536132502791633669e+01,-9.669855891180090168e+01,-9.336076348005946102e+01
1.803017740859568993e-02,2.149516189560621626e+01,1.552076494923537098e+01,-9.682193131894334215e+01,-9.342309751526647688e+01
1.836538343348346342e-02,2.165286285958425339e+01,1.568018392802489203e+01,-9.694753207317604904e+01,-9.348658208640900114e+01
1.870682140365800480e-02,2.181047883009934196e+01,1.583958118416000005e+01,-9.707539896447612193e+01,-9.355123811203090156e+01
1.905460717963247327e-02,2.196800671427472906e+01,1.599895590868104911e+01,-9.720557028560195079e+01,-9.361708687301698717e+01
1.940885877592778141e-02,2.212544331038953516e+01,1.615830726274500151e+01,-9.733808483073948992e+01,-9.368415001784185847e+01
1.976969640111861035e-02,2.228278530432655913e+01,1.631763437654000626e+01,-9.747298189357553611e+01,-9.375244956783380701e+01
2.013724249862388488e-02,2.244002926592535729e+01,1.647693634816193864e+01,-9.761030126476212843e+01,-9.382200792244981358e+01
2.051162178825565591e-02,2.259717164523948441e+01,1.663621224245168406e+01,-9.775008322873371469e+01,-9.389284786455685605e+01
2.089296130854039965e-02,2.275420876869740994e+01,1.679546108979196362e+01,-9.789236855983801888e+01,-9.396499256571473779e+01
2.128139045982712155e-02,2.291113683516628896e+01,1.695468188486233885e+01,-9.803719851773902860e+01,-9.403846559145542017e+01
2.167704104819695443e-02,2.306795191191848815e+01,1.711387358535113634e+01,-9.818461484204910050e+01,-9.411329090655290486e+01
2.208004733018900309e-02,2.322464993050035176e+01,1.727303511062294916e+01,-9.833465974614509264e+01,-9.418949288027826583e+01
2.249054605835780485e-02,2.338122668250352731e+01,1.743216534034025500e+01,-9.848737591012245218e+01,-9.426709629163278237e+01
2.290867652767772725e-02,2.353767781523890790e+01,1.759126311303789336e+01,-9.864280647283790415e+01,-9.434612633455301989e+01
2.333458062281001943e-02,2.369399882731378426e+01,1.775032722464878887e+01,-9.880099502299098901e+01,-9.442660862308011360e+01
2.376840286624876120e-02,2.385018506411297423e+01,1.790935642697957775e+01,-9.896198558919165578e+01,-9.450856919648576593e+01
2.421029046736177665e-02,2.400623171318510884e+01,1.806834942613460981e+01,-9.912582262895980989e+01,-9.459203452434663006e+01
2.466039337234338796e-02,2.416213379953538265e+01,1.822730488088676637e+01,-9.929255101660059779e+01,-9.467703151155845376e+01
2.511886431509579784e-02,2.431788618082664044e+01,1.838622140099358404e+01,-9.946221602989741939e+01,-9.476358750328022040e+01
2.558585886905645132e-02,2.447348354249099245e+01,1.854509754545711075e+01,-9.963486333556221552e+01,-9.485173028979899357e+01
2.606153549998894980e-02,2.462892039275448042e+01,1.870393182072581695e+01,-9.981053897338149739e+01,-9.494148811130455101e+01
2.654605561975538486e-02,2.478419105757791385e+01,1.886272267883704501e+01,-9.998928933899428273e+01,-9.503288966256246795e+01
2.703958364108843479e-02,2.493928967551738651e+01,1.902146851549827034e+01,-1.001711611652357590e+02,-9.512596409747438031e+01
2.754228703338166065e-02,2.509421019250842733e+01,1.918016766810553619e+01,-1.003562015019796689e+02,-9.522074103351215513e+01
2.805433637951713216e-02,2.524894635657857123e+01,1.933881841369736776e+01,-1.005444576944102693e+02,-9.531725055601332031e+01
2.857590543374946557e-02,2.540349171249334148e+01,1.949741896684248843e+01,-1.007359773596525514e+02,-9.541552322232323036e+01
2.910717118066605269e-02,2.555783959634160141e+01,1.965596747745958339e+01,-1.009308083616889604e+02,-9.551559006576907507e+01
2.964831389524342359e-02,2.571198313006665614e+01,1.981446202856745487e+01,-1.011289987844880613e+02,-9.561748259945045447e+01
3.019951720402016052e-02,2.586591521595041243e+01,1.997290063396376070e+01,-1.013305969032709299e+02,-9.572123281982916865e+01
3.076096814740707924e-02,2.601962853105843010e+01,2.013128123583070561e+01,-1.015356511538382591e+02,-9.582687321010129722e+01
3.133285724315585524e-02,2.617311552165472222e+01,2.028960170226582704e+01,-1.017442100998812577e+02,-9.593443674333258286e+01
3.191537855100761573e-02,2.632636839759580383e+01,2.044785982473633368e+01,-1.019563223981984521e+02,-9.604395688533776365e+01
3.250872973854343484e-02,2.647937912671451244e+01,2.060605331545511376e+01,-1.021720367617397045e+02,-9.615546759728330528e+01
3.311311214825911342e-02,2.663213942920502930e+01,2.076417980467684643e+01,-1.023914019203989483e+02,-9.626900333799164855e+01
3.372873086588688840e-02,2.678464077202136906e+01,2.092223683791246813e+01,-1.026144665794765132e+02,-9.638459906592406412e+01
3.435579478998746633e-02,2.693687436330294105e+01,2.108022187306044870e+01,-1.028412793757328245e+02,-9.650229024081848195e+01
3.499451670283573040e-02,2.708883114684144644e+01,2.123813227745320020e+01,-1.030718888309558707e+02,-9.662211282495661635e+01
3.564511334262442793e-02,2.724050179660484261e+01,2.139596532481705538e+01,-1.033063433029656295e+02,-9.674410328403378401e+01
3.630780547701013827e-02,2.739187671133509383e+01,2.155371819214444429e+01,-1.035446909339801351e+02,-9.686829858760394529e+01
3.698281797802662613e-02,2.754294600923760683e+01,2.171138795647665987e+01,-1.037869795962705695e+02,-9.699473620907036775e+01
3.767037989839089329e-02,2.769369952278157854e+01,2.186897159159599724e+01,-1.040332568350340381e+02,-9.712345412519110255e+01
3.837072454922788034e-02,2.784412679363171961e+01,2.202646596462586004e+01,-1.042835698084169991e+02,-9.725449081506762639e+01
3.908408957924021376e-02,2.799421706773311058e+01,2.218386783253779981e+01,-1.045379652246246707e+02,-9.738788525858242906e+01
3.981071705534973415e-02,2.814395929057232593e+01,2.234117383856422023e+01,-1.047964892760574429e+02,-9.752367693425048856e+01
4.055085354483839444e-02,2.829334210263930771e+01,2.249838050851601423e+01,-1.050591875704185298e+02,-9.766190581644806912e+01
4.130475019901614503e-02,2.844235383511587401e+01,2.265548424700409669e+01,-1.053261050587446732e+02,-9.780261237197966295e+01
4.207266283844442178e-02,2.859098250581811840e+01,2.281248133356431040e+01,-1.055972859603164693e+02,-9.794583755594365471e+01
4.285485203974396390e-02,2.873921581542151671e+01,2.296936791868514760e+01,-1.058727736844134171e+02,-9.809162280685411872e+01
4.365158322401661156e-02,2.888704114399869383e+01,2.312614001973797073e+01,-1.061526107488860049e+02,-9.824001004097542022e+01
4.446312674691089289e-02,2.903444554790154086e+01,2.328279351680961540e+01,-1.064368386955271149e+02,-9.839104164582386147e+01
4.528975799036209088e-02,2.918141575702051682e+01,2.343932414843749967e+01,-1.067254980022341044e+02,-9.854476047278910755e+01
4.613175745603794592e-02,2.932793817245549661e+01,2.359572750724755252e+01,-1.070186279919647774e+02,-9.870120982882610861e+01
4.698941086052155908e-02,2.947399886463372809e+01,2.375199903549564695e+01,-1.073162667385018807e+02,-9.886043346716641622e+01
4.786300923226385201e-02,2.961958357191182856e+01,2.390813402051332659e+01,-1.076184509690545070e+02,-9.902247557699558911e+01
4.875284901033865442e-02,2.976467769970000532e+01,2.406412759005920066e+01,-1.079252159637382391e+02,-9.918738077204221781e+01
4.965923214503362854e-02,2.990926632014755882e+01,2.421997470757744253e+01,-1.082365954519922440e+02,-9.935519407802101455e+01
5.058246620031139895e-02,3.005333417243018701e+01,2.437567016736537440e+01,-1.085526215060069859e+02,-9.952596091887158991e+01
5.152286445817564481e-02,3.019686566368008585e+01,2.453120858965248985e+01,-1.088733244312547583e+02,-9.969972710173203723e+01
5.248074602497725810e-02,3.033984487060092761e+01,2.468658441559358963e+01,-1.091987326542334102e+02,-9.987653880058434197e+01
5.345643593969716389e-02,3.048225554181038177e+01,2.484179190217938071e+01,-1.095288726075542911e+02,-1.000564425385077811e+02
5.445026528424212059e-02,3.062408110095316971e+01,2.499682511706814125e+01,-1.098637686125258739e+02,-1.002394851684731805e+02
5.546257129579107437e-02,3.076530465062805675e+01,2.515167793334274293e+01,-1.102034427594072667e+02,-1.004257138526104285e+02
5.649369748123025253e-02,3.090590897717227392e+01,2.530634402419781992e+01,-1.105479147855287749e+02,-1.006151760398792874e+02
5.754399373371569398e-02,3.104587655634649934e+01,2.546081685756257684e+01,-1.108972019515012448e+02,-1.008079194420720057e+02
5.861381645140287255e-02,3.118518955996329822e+01,2.561508969066515817e+01,-1.112513189157608480e+02,-1.010039920080748459e+02
5.970352865838369355e-02,3.132382986350105725e+01,2.576915556454550682e+01,-1.116102776077223098e+02,-1.012034418963143736e+02
6.081350012787179599e-02,3.146177905474448622e+01,2.592300729852396657e+01,-1.119740870998401903e+02,-1.014063174453126521e+02
6.194410750767814777e-02,3.159901844349141697e+01,2.607663748463408737e+01,-1.123427534789052515e+02,-1.016126671422750292e+02
6.309573444801933051e-02,3.173552907236389586e+01,2.623003848202852595e+01,-1.127162797169307709e+02,-1.018225395896326546e+02
6.426877173170197910e-02,3.187129172875943439e+01,2.638320241136805322e+01,-1.130946655420120237e+02,-1.020359834694618542e+02
6.546361740672750062e-02,3.200628695797598766e+01,2.653612114920441201e+01,-1.134779073095701420e+02,-1.022530475057015735e+02
6.668067692136221691e-02,3.214049507754113222e+01,2.668878632236884840e+01,-1.138659978744197616e+02,-1.024737804240900800e+02
6.792036326171846383e-02,3.227389619277277433e+01,2.684118930237904976e+01,-1.142589264641275975e+02,-1.026982309097422359e+02
6.918309709189363055e-02,3.240647021359494317e+01,2.699332119987826673e+01,-1.146566785541566844e+02,-1.029264475622891553e+02
7.046930689671467019e-02,3.253819687262791405e+01,2.714517285912155842e+01,-1.150592357453168262e+02,-1.031584788485031510e+02
7.177942912713615453e-02,3.266905574456742301e+01,2.729673485252510190e+01,-1.154665756440673761e+02,-1.033943730523311757e+02
7.311390834834172181e-02,3.279902626686254052e+01,2.744799747529582135e+01,-1.158786717462418778e+02,-1.036341782222629746e+02
7.447319739059889143e-02,3.292808776169612628e+01,2.759895074015971517e+01,-1.162954933247866478e+02,-1.038779421159612895e+02
7.585775750291835762e-02,3.305621945926591820e+01,2.774958437220849561e+01,-1.167170053221243222e+02,-1.041257121420845237e+02
7.726805850957021993e-02,3.318340052235770088e+01,2.789988780388557998e+01,-1.171431682477716407e+02,-1.043775352992356744e+02
7.870457896950984467e-02,3.330961007219511316e+01,2.804985017013358117e+01,-1.175739380818547204e+02,-1.046334581119746048e+02
8.016780633876789686e-02,3.343482721554347847e+01,2.819946030372704726e+01,-1.180092661851763296e+02,-1.048935265638362466e+02
8.165823713585922128e-02,3.355903107303720390e+01,2.834870673081536552e+01,-1.184490992164982259e+02,-1.051577860273013272e+02
8.317637711026708291e-02,3.368220080869236455e+01,2.849757766670230197e+01,-1.188933790577046352e+02,-1.054262811906732082e+02
8.472274141405965187e-02,3.380431566055776216e+01,2.864606101188988418e+01,-1.193420427475131049e+02,-1.056990559818205213e+02
8.629785477669701943e-02,3.392535497244927001e+01,2.879414434841601533e+01,-1.197950224243940482e+02,-1.059761534887532832e+02
8.790225168308841985e-02,3.404529822670335193e+01,2.894181493651632664e+01,-1.202522452793504613e+02,-1.062576158770084476e+02
8.953647655495937385e-02,3.416412507787698871e+01,2.908905971164239190e+01,-1.207136335191943175e+02,-1.065434843038299562e+02
9.120108393559096804e-02,3.428181538731220002e+01,2.923586528186977418e+01,-1.211791043409366466e+02,-1.068337988291399370e+02
9.289663867799362318e-02,3.439834925847452496e+01,2.938221792573060043e+01,-1.216485699178806072e+02,-1.071285983233070880e+02
9.462371613657930003e-02,3.451370707296592855e+01,2.952810359050685918e+01,-1.221219373979780300e+02,-1.074279203717331512e+02
9.638290236239706321e-02,3.462786952710420252e+01,2.967350789102177799e+01,-1.225991089149703299e+02,-1.077318011762895935e+02
9.817479430199843593e-02,3.474081766895237422e+01,2.981841610896774597e+01,-1.230799816127921815e+02,-1.080402754536532086e+02
1.000000000000000056e-01,3.485253293567392063e+01,2.996281319281052191e+01,-1.235644476836681349e+02,-1.083533763306036235e+02
1.018591388054116975e-01,3.496299719108202453e+01,3.010668375831029309e+01,-1.240523944202764852e+02,-1.086711352363638952e+02
1.037528415818012584e-01,3.507219276324419610e+01,3.025001208970112287e+01,-1.245437042822950957e+02,-1.089935817920823808e+02
1.056817509213658496e-01,3.518010248199746570e+01,3.039278214157102198e+01,-1.250382549775784184e+02,-1.093207436975742013e+02
1.076465213629834994e-01,3.528670971622389629e+01,3.053497754148545340e+01,-1.255359195581440872e+02,-1.096526466154605828e+02
1.096478196143185202e-01,3.539199841073142494e+01,3.067658159339753610e+01,-1.260365665310728218e+02,-1.099893140528658364e+02
1.116863247780561230e-01,3.549595312258172441e+01,3.081757728188826562e+01,-1.265400599843458451e+02,-1.103307672408547830e+02
1.137627285823430978e-01,3.559855905670374909e+01,3.095794727728025109e+01,-1.270462597275621448e+02,-1.106770250118165109e+02
1.158777356155126226e-01,3.569980210063047110e+01,3.109767394166798127e+01,-1.275550214473913400e+02,-1.110281036750256618e+02
1.180320635651729844e-01,3.579966885819583666e+01,3.123673933590727003e+01,-1.280661968775315529e+02,-1.113840168906372980e+02
1.202264434617413141e-01,3.589814668202973991e+01,3.137512522760558653e+01,-1.285796339828512771e+02,-1.117447755423982727e+02
1.224616199265049082e-01,3.599522370469102128e+01,3.151281310015386694e+01,-1.290951771573059261e+02,-1.121103876093849578e+02
1.247383514242943192e-01,3.609088886828204323e+01,3.164978416283892670e+01,-1.296126674351289978e+02,-1.124808580371043689e+02
1.270574105208542026e-01,3.618513195239267333e+01,3.178601936207380874e+01,-1.301319427147106182e+02,-1.128561886083244445e+02
1.294195841449986284e-01,3.627794360022801357e+01,3.192149939378098011e+01,-1.306528379944889764e+02,-1.132363778140266248e+02
1.318256738556407293e-01,3.636931534278095768e+01,3.205620471696099116e+01,-1.311751856200976647e+02,-1.136214207249027481e+02
1.342764961137864199e-01,3.645923962091953996e+01,3.219011556847586064e+01,-1.316988155419318218e+02,-1.140113088638459544e+02
1.367728825595849462e-01,3.654770980526838287e+01,3.232321197907322130e+01,-1.322235555822214224e+02,-1.144060300799131369e+02
1.393156802945303419e-01,3.663472021377457821e+01,3.245547379067312477e+01,-1.327492317106309088e+02,-1.148055684242632140e+02
1.419057521689092716e-01,3.672026612685990443e+01,3.258688067493538654e+01,-1.332756683273411227e+02,-1.152099040286013150e+02
1.445439770745927111e-01,3.680434380007413608e+01,3.271741215312001572e+01,-1.338026885525144110e+02,-1.156190129866842824e+02
1.472312502432718551e-01,3.688695047417777317e+01,3.284704761724857747e+01,-1.343301145209950676e+02,-1.160328672394656166e+02
1.499684835502373137e-01,3.696808438259657947e+01,3.297576635256804423e+01,-1.348577676810576520e+02,-1.164514344644782824e+02
1.527566058238072344e-01,3.704774475620537544e+01,3.310354756131294351e+01,-1.353854690959857123e+02,-1.168746779700748846e+02
1.555965631605074340e-01,3.712593182541338876e+01,3.323037038775463259e+01,-1.359130397472404468e+02,-1.173025565951591460e+02
1.584893192461113431e-01,3.720264681953938180e+01,3.335621394451975164e+01,-1.364403008379680102e+02,-1.177350246150566022e+02
1.614358556826486213e-01,3.727789196348003742e+01,3.348105734015222623e+01,-1.369670740955902204e+02,-1.181720316541829874e+02
1.644371723214931580e-01,3.735167047169073840e+01,3.360487970788565093e+01,-1.374931820722314626e+02,-1.186135226061744703e+02
1.674942876026437322e-01,3.742398653951335064e+01,3.372766023558435222e+01,-1.380184484417510760e+02,-1.190594375621467123e+02
1.706082389003123478e-01,3.749484533190062052e+01,3.384937819680361315e+01,-1.385426982921756576e+02,-1.195097117477479429e+02
1.737800828749375415e-01,3.756425296960119198e+01,3.397001298291024796e+01,-1.390657584123618733e+02,-1.199642754696633062e+02
1.770108958317421211e-01,3.763221651288346692e+01,3.408954413619652257e+01,-1.395874575717626556e+02,-1.204230540722185907e+02
1.803017740859569062e-01,3.769874394288947173e+01,3.420795138391102341e+01,-1.401076267922229306e+02,-1.208859679047117055e+02
1.836538343348346480e-01,3.776384414072226292e+01,3.432521467312162855e+01,-1.406260996107882875e+02,-1.213529323000799707e+02
1.870682140365800550e-01,3.782752686438183787e+01,3.444131420631637752e+01,-1.411427123325774744e+02,-1.218238575654829390e+02
1.905460717963247397e-01,3.788980272367462021e+01,3.455623047763980082e+01,-1.416573042728406335e+02,-1.222986489853462473e+02
1.940885877592778419e-01,3.795068315323086239e+01,3.466994430965336704e+01,-1.421697179874025494e+02,-1.227772068373728160e+02
1.976969640111860826e-01,3.801018038377203112e+01,3.478243689050077592e+01,-1.426797994907716429e+02,-1.232594264219831643e+02
2.013724249862388627e-01,3.806830741177720512e+01,3.489368981135096703e+01,-1.431873984612799404e+02,-1.237451981055934311e+02
2.051162178825565729e-01,3.812507796770250934e+01,3.500368510398445920e+01,-1.436923684327067861e+02,-1.242344073780853080e+02
2.089296130854039757e-01,3.818050648291213633e+01,3.511240527838196357e+01,-1.441945669719281966e+02,-1.247269349247585097e+02
2.128139045982712363e-01,3.823460805548182861e+01,3.521983336016843680e+01,-1.446938558422232290e+02,-1.252226567129885240e+02
2.167704104819695166e-01,3.828739841503772823e+01,3.532595292776031926e+01,-1.451901011519577480e+02,-1.257214440937423205e+02
2.208004733018900378e-01,3.833889388679345700e+01,3.543074814905980219e+01,-1.456831734884554237e+02,-1.262231639180247669e+02
2.249054605835781873e-01,3.838911135494745963e+01,3.553420381753632284e+01,-1.461729480369520786e+02,-1.267276786682520253e+02
2.290867652767773488e-01,3.843806822560075176e+01,3.563630538753369592e+01,-1.466593046846134314e+02,-1.272348466044603015e+02
2.333458062281003331e-01,3.848578238935194662e+01,3.573703900863983307e+01,-1.471421281096775999e+02,-1.277445219251757607e+02
2.376840286624877230e-01,3.853227218372245488e+01,3.583639155895620831e+01,-1.476213078558614029e+02,-1.282565549426803386e+02
2.421029046736178914e-01,3.857755635555977847e+01,3.593435067710582587e+01,-1.480967383922420311e+02,-1.287707922723199658e+02
2.466039337234340045e-01,3.862165402356086474e+01,3.603090479282052172e+01,-1.485683191588936154e+02,-1.292870770354124659e+02
2.511886431509580686e-01,3.866458464105114246e+01,3.612604315595272908e+01,-1.490359545986220553e+02,-1.298052490752221502e+02
2.558585886905645479e-01,3.870636795914756334e+01,3.621975586376190392e+01,-1.494995541751991368e+02,-1.303251451853813592e+02
2.606153549998895258e-01,3.874702399042637069e+01,3.631203388633213081e+01,-1.499590323785479598e+02,-1.308465993500533386e+02
2.654605561975538763e-01,3.878657297320818031e+01,3.640286908998525917e+01,-1.504143087173796118e+02,-1.313694429950494111e+02
2.703958364108843271e-01,3.882503533656437611e+01,3.649225425856280935e+01,-1.508653076998204483e+02,-1.318935052490347744e+02
2.754228703338166273e-01,3.886243166614043076e+01,3.658018311246001275e+01,-1.513119588026040105e+02,-1.324186132138852656e+02
2.805433637951713077e-01,3.889878267088259634e+01,3.666665032530634960e+01,-1.517541964294312322e+02,-1.329445922431897600e+02
2.857590543374946557e-01,3.893410915074564116e+01,3.675165153819932584e+01,-1.521919598591250633e+02,-1.334712662278329276e+02
2.910717118066605269e-01,3.896843196545045629e+01,3.683518337141107679e+01,-1.526251931842235194e+02,-1.339984578875400985e+02
2.964831389524342220e-01,3.900177200435137337e+01,3.691724343350126958e+01,-1.530538452406682950e+02,-1.345259890672209622e+02
3.019951720402015982e-01,3.903415015746466565e+01,3.699783032778438496e+01,-1.534778695292523025e+02,-1.350536810369123657e+02
3.076096814740708063e-01,3.906558728770082212e+01,3.707694365611400400e+01,-1.538972241294937930e+02,-1.355813547940925332e+02
3.133285724315585385e-01,3.909610420433545386e+01,3.715458401996264115e+01,-1.543118716066015850e+02,-1.361088313671220646e+02
3.191537855100761711e-01,3.912572163774560607e+01,3.723075301879070764e+01,-1.547217789121910130e+02,-1.366359321185573208e+02
3.250872973854344039e-01,3.915446021543066024e+01,3.730545324571402688e+01,-1.551269172794009137e+02,-1.371624790470826554e+02
3.311311214825911065e-01,3.918234043933012600e+01,3.737868828049487036e+01,-1.555272621130477830e+02,-1.376882950868195223e+02
3.372873086588689118e-01,3.920938266444370868e+01,3.745046267989668820e+01,-1.559227928754397681e+02,-1.382132044027900690e+02
3.435579478998746494e-01,3.923560707875291342e+01,3.752078196545747346e+01,-1.563134929684514987e+02,-1.387370326813419865e+02
3.499451670283573179e-01,3.926103368443754249e+01,3.758965260875123704e+01,-1.566993496124428304e+02,-1.392596074143797580e+02
3.564511334262442932e-01,3.928568228037506316e+01,3.765708201422073387e+01,-1.570803537225797299e+02,-1.397807581762944267e+02
3.630780547701014105e-01,3.930957244590602784e+01,3.772307849967712912e+01,-1.574564997830926245e+02,-1.403003168925377793e+02
3.698281797802662751e-01,3.933272352584420162e+01,3.778765127457472062e+01,-1.578277857199797438e+02,-1.408181180988494248e+02
3.767037989839089884e-01,3.935515461670603088e+01,3.785081041617940656e+01,-1.581942127726390765e+02,-1.413339991902130635e+02
3.837072454922788589e-01,3.937688455413068311e+01,3.791256684375960617e+01,-1.585557853648817854e+02,-1.418478006586916251e+02
3.908408957924021099e-01,3.939793190145869062e+01,3.797293229093700262e+01,-1.589125109757548273e+02,-1.423593663193713326e+02
3.981071705534973137e-01,3.941831493943443832e+01,3.803191927634186698e+01,-1.592644000105704549e+02,-1.428685435237247816e+02
4.055085354483839444e-01,3.943805165699571091e+01,3.808954107272404599e+01,-1.596114656725126224e+02,-1.433751833597926009e+02
4.130475019901613809e-01,3.945715974311142560e+01,3.814581167467535749e+01,-1.599537238351628332e+02,-1.438791408386678654e+02
4.207266283844441901e-01,3.947565657962713459e+01,3.820074576512316611e+01,-1.602911929162589502e+02,-1.443802750668585873e+02
4.285485203974396251e-01,3.949355923507668820e+01,3.825435868075665979e+01,-1.606238937529751922e+02,-1.448784494041934749e+02
4.365158322401661573e-01,3.951088445941780947e+01,3.830666637654910289e+01,-1.609518494789831493e+02,-1.453735316070239776e+02
4.446312674691088040e-01,3.952764867964819473e+01,3.835768538953853124e+01,-1.612750854035296300e+02,-1.458653939565650148e+02
4.528975799036208949e-01,3.954386799625916638e+01,3.840743280202850940e+01,-1.615936288927410942e+02,-1.463539133723020882e+02
4.613175745603795286e-01,3.955955818048315820e+01,3.845592620436798370e+01,-1.619075092533412317e+02,-1.468389715104749200e+02
4.698941086052153548e-01,3.957473467229186070e+01,3.850318365746566229e+01,-1.622167576189458202e+02,-1.473204548477294225e+02
4.786300923226382564e-01,3.958941257910218781e+01,3.854922365519006888e+01,-1.625214068390758371e+02,-1.477982547501030126e+02
4.875284901033862806e-01,3.960360667514769517e+01,3.859406508680122272e+01,-1.628214913710108078e+02,-1.482722675275813629e+02
4.965923214503361049e-01,3.961733140147369170e+01,3.863772719955341017e+01,-1.631170471745843713e+02,-1.487423944745312951e+02
5.058246620031140450e-01,3.963060086651540104e+01,3.868022956160226755e+01,-1.634081116100047950e+02,-1.492085418963732195e+02
5.152286445817564342e-01,3.964342884721930460e+01,3.872159202534147227e+01,-1.636947233387679148e+02,-1.496706211229159180e+02
5.248074602497725394e-01,3.965582879066890598e+01,3.876183469128703507e+01,-1.639769222277119809e+02,-1.501285485088223197e+02
5.345643593969716667e-01,3.966781381617736457e+01,3.880097787261845355e+01,-1.642547492562507614e+02,-1.505822454217231154e+02
5.445026528424211643e-01,3.967939671781068967e+01,3.883904206047774466e+01,-1.645282464268061062e+02,-1.510316382185295367e+02
5.546257129579107437e-01,3.969058996730651501e+01,3.887604789011852802e+01,-1.647974566784497767e+02,-1.514766582105326336e+02
5.649369748123025392e-01,3.970140571735470303e+01,3.891201610798828625e+01,-1.650624238037518978e+02,-1.519172416179002312e+02
5.754399373371569260e-01,3.971185580520748459e+01,3.894696753981835968e+01,-1.653231923688228733e+02,-1.523533295142058250e+02
5.861381645140287810e-01,3.972195175658840327e+01,3.898092305978698846e+01,-1.655798076365269367e+02,-1.527848677616389637e+02
5.970352865838368661e-01,3.973170478987036347e+01,3.901390356081221000e+01,-1.658323154928355052e+02,-1.532118069375563323e+02
6.081350012787178905e-01,3.974112582049490072e+01,3.904592992602264445e+01,-1.660807623762820526e+02,-1.536341022530400551e+02
6.194410750767814777e-01,3.975022546560601455e+01,3.907702300144607932e+01,-1.663251952104722022e+02,-1.540517134641293069e+02
6.309573444801933606e-01,3.975901404887321178e+01,3.910720356994738722e+01,-1.665656613395977388e+02,-1.544646047763889669e+02
6.426877173170196800e-01,3.976750160548002100e+01,3.913649232643984988e+01,-1.668022084668968432e+02,-1.548727447434717988e+02
6.546361740672750340e-01,3.977569788725551803e+01,3.916490985438655770e+01,-1.670348845959992161e+02,-1.552761061603194150e+02
6.668067692136222524e-01,3.978361236792747491e+01,3.919247660360129970e+01,-1.672637379750898674e+02,-1.556746659516335853e+02
6.792036326171846383e-01,3.979125424847755710e+01,3.921921286935230455e+01,-1.674888170438227633e+02,-1.560684050562325922e+02
6.918309709189366385e-01,3.979863246257971809e+01,3.924513877276559981e+01,-1.677101703829123380e+02,-1.564573083078878426e+02
7.046930689671468961e-01,3.980575568210456083e+01,3.927027424251944865e+01,-1.679278466663286338e+02,-1.568413643132141715e+02
7.177942912713618506e-01,3.981263232267335184e+01,3.929463899781598712e+01,-1.681418946160205792e+02,-1.572205653271640244e+02
7.311390834834176067e-01,3.981927054924666720e+01,3.931825253261143160e+01,-1.683523629590895041e+02,-1.575949071266502131e+02
7.447319739059892196e-01,3.982567828173372249e+01,3.934113410108203368e+01,-1.685593003873354974e+02,-1.579643888827971807e+02
7.585775750291839925e-01,3.983186320060940488e+01,3.936330270429911593e+01,-1.687627555190975670e+02,-1.583290130322913853e+02
7.726805850957025879e-01,3.983783275252704215e+01,3.938477707808311123e+01,-1.689627768633090739e+02,-1.586887851482758265e+02
7.870457896950989740e-01,3.984359415591607956e+01,3.940557568200357252e+01,-1.691594127856895113e+02,-1.590437138112043556e+02
8.016780633876793294e-01,3.984915440655447583e+01,3.942571668948974661e+01,-1.693527114769943580e+02,-1.593938104800437827e+02
8.165823713585927957e-01,3.985452028310663763e+01,3.944521797901379756e+01,-1.695427209232456960e+02,-1.597390893641830587e+02
8.317637711026708569e-01,3.985969835261858663e+01,3.946409712630746469e+01,-1.697294888778663164e+02,-1.600795672963816969e+02
8.472274141405963244e-01,3.986469497596267075e+01,3.948237139757119962e+01,-1.699130628356419379e+02,-1.604152636070614903e+02
8.629785477669702498e-01,3.986951631322505563e+01,3.950005774363381761e+01,-1.700934900084369303e+02,-1.607462000002180673e+02
8.790225168308842818e-01,3.987416832902974306e+01,3.951717279501995961e+01,-1.702708173025899328e+02,-1.610724004312051818e+02
8.953647655495936553e-01,3.987865679779357464e+01,3.953373285788228486e+01,-1.704450912979185375e+02,-1.613938909866155029e+02
9.120108393559096527e-01,3.988298730890745958e+01,3.954975391075484481e+01,-1.706163582282622997e+02,-1.617106997664606070e+02
9.289663867799362595e-01,3.988716527183925820e+01,3.956525160208426684e+01,-1.707846639634956034e+02,-1.620228567688275803e+02
9.462371613657929448e-01,3.989119592115476109e+01,3.958024124849573866e+01,-1.709500539929443619e+02,-1.623303937771671883e+02
9.638290236239704933e-01,3.989508432145326822e+01,3.959473783375086953e+01,-1.711125734101410387e+02,-1.626333442503487277e+02
9.817479430199843593e-01,3.989883537221503218e+01,3.960875600835547061e+01,-1.712722668988553210e+02,-1.629317432155946221e+02
1.000000000000000000e+00,3.990245381255816426e+01,3.962231008977587976e+01,-1.714291787203395074e+02,-1.632256271643902039e+02
1.018591388054116864e+00,3.990594422590297086e+01,3.963541406322333671e+01,-1.715833527017291260e+02,-1.635150339514454743e+02
1.037528415818012695e+00,3.990931104454211464e+01,3.964808158296705187e+01,-1.717348322255415383e+02,-1.638000026967692122e+02
1.056817509213658468e+00,3.991255855411533560e+01,3.966032597413762062e+01,-1.718836602202176778e+02,-1.640805736909005077e+02
1.076465213629834938e+00,3.991569089798775138e+01,3.967216023498369282e+01,-1.720298791516529207e+02,-1.643567883033280452e+02
1.096478196143185091e+00,3.991871208153111183e+01,3.968359703954602935e+01,-1.721735310156660717e+02,-1.646286888941131963e+02
1.116863247780561119e+00,3.992162597630753140e+01,3.969464874071444171e+01,-1.723146573313567274e+02,-1.648963187287234575e+02
1.137627285823431089e+00,3.992443632415566412e+01,3.970532737363446785e+01,-1.724532991353031832e+02,-1.651597218960684472e+02
1.158777356155126226e+00,3.992714674117935658e+01,3.971564465943193056e+01,-1.725894969765554663e+02,-1.654189432297224585e+02
1.180320635651729733e+00,3.992976072163897783e+01,3.972561200922518765e+01,-1.727232909123788431e+02,-1.656740282323076769e+02
1.202264434617413169e+00,3.993228164174604444e+01,3.973524052839593423e+01,-1.728547205047062789e+02,-1.659250230030039290e+02
1.224616199265048833e+00,3.993471276336173759e+01,3.974454102109113052e+01,-1.729838248172586361e+02,-1.661719741681432652e+02
1.247383514242943248e+00,3.993705723759997284e+01,3.975352399492996369e+01,-1.731106424132944142e+02,-1.664149288148420567e+02
1.270574105208541971e+00,3.993931810833625207e+01,3.976219966589105326e+01,-1.732352113539515415e+02,-1.666539344276154111e+02
1.294195841449986339e+00,3.994149831562295105e+01,3.977057796335658679e+01,-1.733575691971457218e+02,-1.668890388279158969e+02
1.318256738556407237e+00,3.994360069901266286e+01,3.977866853529140201e+01,-1.734777529969917396e+02,-1.671202901165329990e+02
1.342764961137864255e+00,3.994562800079045672e+01,3.978648075353629565e+01,-1.735957993037147844e+02,-1.673477366187860014e+02
1.367728825595849518e+00,3.994758286911665834e+01,3.979402371919619696e+01,-1.737117441640210984e+02,-1.675714268324404088e+02
1.393156802945303863e+00,3.994946786108148729e+01,3.980130626810500161e+01,-1.738256231218989853e+02,-1.677914093782747500e+02
1.419057521689092605e+00,3.995128544567302242e+01,3.980833697635023327e+01,-1.739374712198207078e+02,-1.680077329532232113e+02
1.445439770745927888e+00,3.995303800666010119e+01,3.981512416584157421e+01,-1.740473230003201479e+02,-1.682204462860174488e+02
1.472312502432719494e+00,3.995472784539166611e+01,3.982167590990880512e+01,-1.741552125079193729e+02,-1.684295980952507250e+02
1.499684835502373748e+00,3.995635718351424259e+01,3.982800003891541252e+01,-1.742611732913806577e+02,-1.686352370497843935e+02
1.527566058238073232e+00,3.995792816560921068e+01,3.983410414587540060e+01,-1.743652384062606018e+02,-1.688374117314200475e+02
1.555965631605074950e+00,3.995944286175153337e+01,3.983999559206169749e+01,-1.744674404177446547e+02,-1.690361705997571278e+02
1.584893192461114264e+00,3.996090326999162556e+01,3.984568151259553304e+01,-1.745678114037407056e+02,-1.692315619591578866e+02
1.614358556826487101e+00,3.996231131876216125e+01,3.985116882200711075e+01,-1.746663829582129495e+02,-1.694236339277417187e+02
1.644371723214932413e+00,3.996366886921143191e+01,3.985646421975858544e+01,-1.747631861947363348e+02,-1.696124344083312110e+02
1.674942876026438210e+00,3.996497771746506089e+01,3.986157419572132454e+01,-1.748582517502545670e+02,-1.697980110612737406e+02
1.706082389003124256e+00,3.996623959681782878e+01,3.986650503560018421e+01,-1.749516097890246442e+02,-1.699804112790633894e+02
1.737800828749376247e+00,3.996745617985721566e+01,3.987126282629809282e+01,-1.750432900067316098e+02,-1.701596821626886822e+02
1.770108958317422099e+00,3.996862908052047203e+01,3.987585346121504415e+01,-1.751333216347595680e+02,-1.703358704996341544e+02
1.803017740859569784e+00,3.996975985608692383e+01,3.988028264547628510e+01,-1.752217334446032169e+02,-1.705090227434637029e+02
1.836538343348347313e+00,3.997085000910707464e+01,3.988455590108492999e+01,-1.753085537524080735e+02,-1.706791849949175912e+02
1.870682140365801827e+00,3.997190098927039514e+01,3.988867857199482359e+01,-1.753938104236253537e+02,-1.708464029844542154e+02
1.905460717963248340e+00,3.997291419521319966e+01,3.989265582910021379e+01,-1.754775308777705618e+02,-1.710107220561706356e+02
1.940885877592779529e+00,3.997389097626842869e+01,3.989649267513888731e+01,-1.755597420932735133e+02,-1.711721871530389762e+02
1.976969640111861937e+00,3.997483263415887933e+01,3.990019394950628140e+01,-1.756404706124104109e+02,-1.713308428033949724e+02
2.013724249862389293e+00,3.997574042463541133e+01,3.990376433297821990e+01,-1.757197425463065201e+02,-1.714867331086187505e+02
2.051162178825564730e+00,3.997661555906178421e+01,3.990720835234046149e+01,-1.757975835800012874e+02,-1.716399017319498057e+02
2.089296130854038758e+00,3.997745920594763192e+01,3.991053038492358240e+01,-1.758740189775660951e+02,-1.717903918883794461e+02
2.128139045982711419e+00,3.997827249243094627e+01,3.991373466304193585e+01,-1.759490735872670371e+02,-1.719382463355657080e+02
2.167704104819693889e+00,3.997905650571176039e+01,3.991682527833606287e+01,-1.760227718467643285e+02,-1.720835073657181340e+02
2.208004733018899213e+00,3.997981229443831808e+01,3.991980618601772335e+01,-1.760951377883413045e+02,-1.722262167984027599e+02
2.249054605835780318e+00,3.998054087004715029e+01,3.992268120901742634e+01,-1.761661950441562681e+02,-1.723664159742166930e+02
2.290867652767772267e+00,3.998124320805854381e+01,3.992545404203440285e+01,-1.762359668515102555e+02,-1.725041457492864652e+02
2.333458062281001943e+00,3.998192024932868094e+01,3.992812825548902111e+01,-1.763044760581250614e+02,-1.726394464905447421e+02
2.376840286624875898e+00,3.998257290125967245e+01,3.993070729937824126e+01,-1.763717451274261521e+02,-1.727723580717420759e+02
2.421029046736177470e+00,3.998320203896906833e+01,3.993319450703439344e+01,-1.764377961438243574e+02,-1.729029198701515213e+02
2.466039337234338547e+00,3.998380850641974860e+01,3.993559309878820329e+01,-1.765026508179922757e+02,-1.730311707639273209e+02
2.511886431509579687e+00,3.998439311751167224e+01,3.993790618553676097e+01,-1.765663304921303336e+02,-1.731571491300785510e+02
2.558585886905645257e+00,3.998495665713661396e+01,3.994013677221749958e+01,-1.766288561452185490e+02,-1.732808928430215190e+02
2.606153549998895258e+00,3.998549988219698292e+01,3.994228776118922042e+01,-1.766902483982496790e+02,-1.734024392736763502e+02
2.654605561975539096e+00,3.998602352259000270e+01,3.994436195552144397e+01,-1.767505275194404533e+02,-1.735218252890736039e+02
2.703958364108843160e+00,3.998652828215821131e+01,3.994636206219332308e+01,-1.768097134294172008e+02,-1.736390872524400208e+02
2.754228703338166273e+00,3.998701483960745406e+01,3.994829069520348952e+01,-1.768678257063729689e+02,-1.737542610237321412e+02
2.805433637951713077e+00,3.998748384939339218e+01,3.995015037859238305e+01,-1.769248835911930087e+02,-1.738673819605891708e+02
2.857590543374946446e+00,3.998793594257755757e+01,3.995194354937841297e+01,-1.769809059925460417e+02,-1.739784849196777259e+02
2.910717118066604936e+00,3.998837172765384196e+01,3.995367256040967163e+01,-1.770359114919388901e+02,-1.740876042584017398e+02
2.964831389524342331e+00,3.998879179134664241e+01,3.995533968313268502e+01,-1.770899183487320272e+02,-1.741947738369528622e+02
3.019951720402016537e+00,3.998919669938122468e+01,3.995694711027992696e+01,-1.771429445051144000e+02,-1.743000270206769358e+02
3.076096814740707952e+00,3.998958699722756904e+01,3.995849695847774541e+01,-1.771950075910349085e+02,-1.744033966827348934e+02
3.133285724315585608e+00,3.998996321081833827e+01,3.995999127077632096e+01,-1.772461249290896603e+02,-1.745049152070358502e+02
3.191537855100761600e+00,3.999032584724191963e+01,3.996143201910350484e+01,-1.772963135393626146e+02,-1.746046144914220690e+02
3.250872973854344039e+00,3.999067539541143645e+01,3.996282110664412102e+01,-1.773455901442191305e+02,-1.747025259510868125e+02
3.311311214825911176e+00,3.999101232671029749e+01,3.996416037014655842e+01,-1.773939711730500335e+02,-1.747986805222067233e+02
3.372873086588688896e+00,3.999133709561542105e+01,3.996545158215835158e+01,-1.774414727669661431e+02,-1.748931086657702849e+02
3.435579478998746605e+00,3.999165014029848919e+01,3.996669645319236963e+01,-1.774881107834415559e+02,-1.749858403715881536e+02
3.499451670283573623e+00,3.999195188320634742e+01,3.996789663382558899e+01,-1.775339008009050303e+02,-1.750769051624671135e+02
3.564511334262442599e+00,3.999224273162094789e+01,3.996905371673186380e+01,-1.775788581232788204e+02,-1.751663320985349515e+02
3.630780547701013994e+00,3.999252307819976693e+01,3.997016923865054849e+01,-1.776229977844637631e+02,-1.752541497817015568e+02
3.698281797802662751e+00,3.999279330149712308e+01,3.997124468229272054e+01,-1.776663345527707918e+02,-1.753403863602428316e+02
3.767037989839089107e+00,3.999305376646731958e+01,3.997228147818646704e+01,-1.777088829352978792e+02,-1.754250695334956447e+02
3.837072454922788811e+00,3.999330482494995209e+01,3.997328100646301863e+01,-1.777506571822520698e+02,-1.755082265566514934e+02
3.908408957924021099e+00,3.999354681613825591e+01,3.997424459858538626e+01,-1.777916712912164598e+02,-1.755898842456383875e+02
3.981071705534973137e+00,3.999378006703080501e+01,3.997517353902093618e+01,-1.778319390113615555e+02,-1.756700689820800392e+02
4.055085354483838778e+00,3.999400489286739457e+01,3.997606906685962969e+01,-1.778714738476011519e+02,-1.757488067183230669e+02
4.130475019901614253e+00,3.999422159754944772e+01,3.997693237737941985e+01,-1.779102890646928188e+02,-1.758261229825222927e+02
4.207266283844441901e+00,3.999443047404560758e+01,3.997776462356029725e+01,-1.779483976912819401e+02,-1.759020428837765451e+02
4.285485203974396029e+00,3.999463180478294788e+01,3.997856691754851255e+01,-1.779858125238907007e+02,-1.759765911173057020e+02
4.365158322401661017e+00,3.999482586202437062e+01,3.997934033207242521e+01,-1.780225461308508557e+02,-1.760497919696619817e+02
4.446312674691088596e+00,3.999501290823259581e+01,3.998008590181142097e+01,-1.780586108561813603e+02,-1.761216693239680922e+02
4.528975799036208727e+00,3.999519319642122639e+01,3.998080462471925500e+01,-1.780940188234101811e+02,-1.761922466651758157e+02
4.613175745603795619e+00,3.999536697049344980e+01,3.998149746330327758e+01,-1.781287819393411098e+02,-1.762615470853384068e+02
4.698941086052156102e+00,3.999553446556857494e+01,3.998216534586078552e+01,-1.781629118977655537e+02,-1.763295932888908055e+02
4.786300923226384896e+00,3.999569590829707266e+01,3.998280916767389215e+01,-1.781964201831194998e+02,-1.763964075979327788e+02
4.875284901033865026e+00,3.999585151716436826e+01,3.998342979216413084e+01,-1.782293180740862510e+02,-1.764620119575093042e+02
4.965923214503362715e+00,3.999600150278383381e+01,3.998402805200809240e+01,-1.782616166471448196e+02,-1.765264279408835080e+02
5.058246620031142449e+00,3.999614606817934259e+01,3.998460475021526861e+01,-1.782933267800649162e+02,-1.765896767547980915e+02
5.152286445817567007e+00,3.999628540905775509e+01,3.998516066116933843e+01,-1.783244591553483929e+02,-1.766517792447203590e+02
5.248074602497728947e+00,3.999641971407170615e+01,3.998569653163398385e+01,-1.783550242636177359e+02,-1.767127559000678900e+02
5.345643593969718665e+00,3.999654916507302715e+01,3.998621308172441502e+01,-1.783850324069523765e+02,-1.767726268594105079e+02
5.445026528424214085e+00,3.999667393735708742e+01,3.998671100584573423e+01,-1.784144937021727912e+02,-1.768314119156457593e+02
5.546257129579109879e+00,3.999679419989845286e+01,3.998719097359906982e+01,-1.784434180840729880e+02,-1.768891305211445228e+02
5.649369748123028501e+00,3.999691011557808906e+01,3.998765363065668055e+01,-1.784718153086021459e+02,-1.769458017928641880e+02
5.754399373371572146e+00,3.999702184140252115e+01,3.998809959960692595e+01,-1.784996949559955794e+02,-1.770014445174265347e+02
5.861381645140290253e+00,3.999712952871503546e+01,3.998852948077012570e+01,-1.785270664338558504e+02,-1.770560771561581248e+02
5.970352865838371770e+00,3.999723332339944903e+01,3.998894385298623888e+01,-1.785539389801841139e+02,-1.771097178500910161e+02
6.081350012787182457e+00,3.999733336607651779e+01,3.998934327437532943e+01,-1.785803216663628916e+02,-1.771623844249216404e+02
6.194410750767818108e+00,3.999742979229335305e+01,3.998972828307169891e+01,-1.786062234000900730e+02,-1.772140943959259971e+02
6.309573444801936937e+00,3.999752273270600966e+01,3.999009939793248236e+01,-1.786316529282654528e+02,-1.772648649728299688e+02
6.426877173170199242e+00,3.999761231325557986e+01,3.999045711922168067e+01,-1.786566188398296902e+02,-1.773147130646324854e+02
6.546361740672747231e+00,3.999769865533794189e+01,3.999080192927034716e+01,-1.786811295685568552e+02,-1.773636552843807976e+02
6.668067692136218305e+00,3.999778187596746903e+01,3.999113429311380230e+01,-1.787051933958007055e+02,-1.774117079538964958e+02
6.792036326171842830e+00,3.999786208793481990e+01,3.999145465910659425e+01,-1.787288184531953164e+02,-1.774588871084509663e+02
6.918309709189361278e+00,3.999793939995908687e+01,3.999176345951592282e+01,-1.787520127253111468e+02,-1.775052085013894896e+02
7.046930689671467185e+00,3.999801391683448770e+01,3.999206111109436534e+01,-1.787747840522663694e+02,-1.775506876087031856e+02
7.177942912713614732e+00,3.999808573957180613e+01,3.999234801563247999e+01,-1.787971401322946292e+02,-1.775953396335480932e+02
7.311390834834172736e+00,3.999815496553472371e+01,3.999262456049208225e+01,-1.788190885242695742e+02,-1.776391795107103917e+02
7.447319739059887311e+00,3.999822168857129867e+01,3.999289111912071348e+01,-1.788406366501868661e+02,-1.776822219110176775e+02
7.585775750291835706e+00,3.999828599914066274e+01,3.999314805154811836e+01,-1.788617917976040133e+02,-1.777244812456954151e+02
7.726805850957020994e+00,3.999834798443522033e+01,3.999339570486517204e+01,-1.788825611220390215e+02,-1.777659716706689608e+02
7.870457896950984633e+00,3.999840772849844228e+01,3.999363441368595318e+01,-1.789029516493281733e+02,-1.778067070908094252e+02
8.016780633876789963e+00,3.999846531233838220e+01,3.999386450059355269e+01,-1.789229702779434490e+02,-1.778467011641248519e+02
8.165823713585922405e+00,3.999852081403722082e+01,3.999408627657012971e+01,-1.789426237812702993e+02,-1.778859673058952922e+02
8.317637711026709013e+00,3.999857430885669629e+01,3.999430004141174777e+01,-1.789619188098466509e+02,-1.779245186927525708e+02
8.472274141405963022e+00,3.999862586933994635e+01,3.999450608412857378e+01,-1.789808618935631159e+02,-1.779623682667036348e+02
8.629785477669701166e+00,3.999867556540949920e+01,3.999470468333090878e+01,-1.789994594438253444e+02,-1.779995287390987073e+02
8.790225168308841930e+00,3.999872346446189653e+01,3.999489610760154079e+01,-1.790177177556791150e+02,-1.780360125945438199e+02
8.953647655495936775e+00,3.999876963145877085e+01,3.999508061585490282e+01,-1.790356430098986777e+02,-1.780718320947572977e+02
9.120108393559096527e+00,3.999881412901476097e+01,3.999525845768347665e+01,-1.790532412750386868e+02,-1.781069992823715040e+02
9.289663867799362151e+00,3.999885701748218736e+01,3.999542987369193980e+01,-1.790705185094507783e+02,-1.781415259846790775e+02
9.462371613657929004e+00,3.999889835503272195e+01,3.999559509581938244e+01,-1.790874805632648190e+02,-1.781754238173240310e+02
9.638290236239704711e+00,3.999893819773605941e+01,3.999575434765012716e+01,-1.791041331803356798e+02,-1.782087041879391620e+02
9.817479430199844259e+00,3.999897659963585284e+01,3.999590784471346439e+01,-1.791204820001560449e+02,-1.782413782997278986e+02
1.000000000000000000e+01,3.999901361282280732e+01,3.999605579477272954e+01,-1.791365325597357128e+02,-1.782734571549933662e+02
1.018591388054116997e+01,3.999904928750518707e+01,3.999619839810406319e+01,-1.791522902954480116e+02,-1.783049515586130553e+02
1.037528415818012739e+01,3.999908367207681437e+01,3.999633584776529460e+01,-1.791677605448436452e+02,-1.783358721214609091e+02
1.056817509213658468e+01,3.999911681318255319e+01,3.999646832985516198e+01,-1.791829485484329894e+02,-1.783662292637760913e+02
1.076465213629835027e+01,3.999914875578149775e+01,3.999659602376335954e+01,-1.791978594514366421e+02,-1.783960332184799995e+02
1.096478196143185180e+01,3.999917954320778790e+01,3.999671910241160333e+01,-1.792124983055053917e+02,-1.784252940344410945e+02
1.116863247780561252e+01,3.999920921722936384e+01,3.999683773248612795e+01,-1.792268700704096887e+02,-1.784540215796886002e+02
1.137627285823431045e+01,3.999923781810450407e+01,3.999695207466186275e+01,-1.792409796156993878e+02,-1.784822255445750443e+02
1.158777356155126270e+01,3.999926538463631687e+01,3.999706228381860029e+01,-1.792548317223339609e+02,-1.785099154448888612e+02
1.180320635651730043e+01,3.999929195422535599e+01,3.999716850924941980e+01,-1.792684310842839466e+02,-1.785371006249166896e+02
1.202264434617413080e+01,3.999931756292025398e+01,3.999727089486168552e+01,-1.792817823101040631e+02,-1.785637902604570115e+02
1.224616199265048877e+01,3.999934224546657191e+01,3.999736957937080462e+01,-1.792948899244782694e+02,-1.785899933617844226e+02
1.247383514242943292e+01,3.999936603535384450e+01,3.999746469648714253e+01,-1.793077583697373711e+02,-1.786157187765660694e+02
1.270574105208542015e+01,3.999938896486100504e+01,3.999755637509608874e+01,-1.793203920073497670e+02,-1.786409751927304512e+02
1.294195841449986339e+01,3.999941106510006961e+01,3.999764473943185550e+01,-1.793327951193855085e+02,-1.786657711412892695e+02
1.318256738556407370e+01,3.999943236605835040e+01,3.999772990924490301e+01,-1.793449719099543813e+02,-1.786901149991122395e+02
1.342764961137864255e+01,3.999945289663904902e+01,3.999781199996342451e+01,-1.793569265066183220e+02,-1.787140149916568248e+02
1.367728825595849429e+01,3.999947268470044293e+01,3.999789112284904036e+01,-1.793686629617784831e+02,-1.787374791956520710e+02
1.393156802945303774e+01,3.999949175709367211e+01,3.999796738514690730e+01,-1.793801852540377411e+02,-1.787605155417380161e+02
1.419057521689092560e+01,3.999951013969908331e+01,3.999804089023040632e+01,-1.793914972895387052e+02,-1.787831318170607346e+02
1.445439770745928065e+01,3.999952785746134509e+01,3.999811173774068607e+01,-1.794026029032776250e+02,-1.788053356678240959e+02
1.472312502432719405e+01,3.999954493442325543e+01,3.999818002372116865e+01,-1.794135058603953041e+02,-1.788271346017982921e+02
1.499684835502373836e+01,3.999956139375833430e+01,3.999824584074720946e+01,-1.794242098574442252e+02,-1.788485359907861039e+02
1.527566058238073232e+01,3.999957725780222262e+01,3.999830927805115977e+01,-1.794347185236334212e+02,-1.788695470730476416e+02
1.555965631605075039e+01,3.999959254808300102e+01,3.999837042164286061e+01,-1.794450354220507791e+02,-1.788901749556835057e+02
1.584893192461114175e+01,3.999960728535034349e+01,3.999842935442585201e+01,-1.794551640508634875e+02,-1.789104266169774462e+02
1.614358556826486790e+01,3.999962148960366193e+01,3.999848615630938298e+01,-1.794651078444969130e+02,-1.789303089086993452e+02
1.644371723214932501e+01,3.999963518011923469e+01,3.999854090431643527e+01,-1.794748701747923008e+02,-1.789498285583681536e+02
1.674942876026438299e+01,3.999964837547634033e+01,3.999859367268779664e+01,-1.794844543521435298e+02,-1.789689921714767138e+02
1.706082389003124433e+01,3.999966109358243216e+01,3.999864453298243205e+01,-1.794938636266136314e+02,-1.789878062336776168e+02
1.737800828749376336e+01,3.999967335169746718e+01,3.999869355417426675e+01,-1.795031011890309856e+02,-1.790062771129318548e+02
1.770108958317421965e+01,3.999968516645724748e+01,3.999874080274540233e+01,-1.795121701720658791e+02,-1.790244110616199862e+02
1.803017740859569784e+01,3.999969655389605805e+01,3.999878634277607148e+01,-1.795210736512877361e+02,-1.790422142186170902e+02
1.836538343348347269e+01,3.999970752946833841e+01,3.999883023603130994e+01,-1.795298146462031070e+02,-1.790596926113314851e+02
1.870682140365801516e+01,3.999971810806971462e+01,3.999887254204449505e+01,-1.795383961212750421e+02,-1.790768521577080037e+02
1.905460717963248385e+01,3.999972830405712898e+01,3.999891331819790707e+01,-1.795468209869241036e+02,-1.790936986681964527e+02
1.940885877592779352e+01,3.999973813126837285e+01,3.999895261980036310e+01,-1.795550921005112457e+02,-1.791102378476857666e+02
1.976969640111861892e+01,3.999974760304085208e+01,3.999899050016209401e+01,-1.795632122673028732e+02,-1.791264752974042267e+02
2.013724249862389470e+01,3.999975673222961348e+01,3.999902701066684330e+01,-1.795711842414186492e+02,-1.791424165167865397e+02
2.051162178825566684e+01,3.999976553122485967e+01,3.999906220084147890e+01,-1.795790107267620215e+02,-1.791580669053080896e+02
2.089296130854040356e+01,3.999977401196873217e+01,3.999909611842299739e+01,-1.795866943779339522e+02,-1.791734317642869314e+02
2.128139045982713284e+01,3.999978218597149748e+01,3.999912880942316917e+01,-1.795942378011301912e+02,-1.791885162986544628e+02
2.167704104819694422e+01,3.999979006432715778e+01,3.999916031819083173e+01,-1.796016435550221502e+02,-1.792033256186943220e+02
2.208004733018899302e+01,3.999979765772852147e+01,3.999919068747195894e+01,-1.796089141516221446e+02,-1.792178647417510433e+02
2.249054605835780407e+01,3.999980497648171962e+01,3.999921995846751344e+01,-1.796160520571325208e+02,-1.792321385939085872e+02
2.290867652767772356e+01,3.999981203052013257e+01,3.999924817088929530e+01,-1.796230596927798899e+02,-1.792461520116387987e+02
2.333458062281001943e+01,3.999981882941793288e+01,3.999927536301368036e+01,-1.796299394356338439e+02,-1.792599097434210762e+02
2.376840286624875986e+01,3.999982538240303853e+01,3.999930157173351120e+01,-1.796366936194111190e+02,-1.792734164513333042e+02
2.421029046736177293e+01,3.999983169836963270e+01,3.999932683260803401e+01,-1.796433245352650090e+02,-1.792866767126140815e+02
2.466039337234338547e+01,3.999983778589023586e+01,3.999935117991113032e+01,-1.796498344325605103e+02,-1.792996950211982039e+02
2.511886431509579509e+01,3.999984365322735869e+01,3.999937464667767273e+01,-1.796562255196355125e+02,-1.793124757892235834e+02
2.558585886905645168e+01,3.999984930834466468e+01,3.999939726474836021e+01,-1.796624999645480898e+02,-1.793250233485125307e+02
2.606153549998894903e+01,3.999985475891782727e+01,3.999941906481283382e+01,-1.796686598958102081e+02,-1.793373419520258949e+02
2.654605561975538564e+01,3.999986001234491084e+01,3.999944007645125055e+01,-1.796747074031080729e+02,-1.793494357752915107e+02
2.703958364108843426e+01,3.999986507575642491e+01,3.999946032817440056e+01,-1.796806445380097443e+02,-1.793613089178071789e+02
2.754228703338166184e+01,3.999986995602498752e+01,3.999947984746232521e+01,-1.796864733146593380e+02,-1.793729654044188635e+02
2.805433637951713166e+01,3.999987465977466172e+01,3.999949866080157079e+01,-1.796921957104591172e+02,-1.793844091866734516e+02
2.857590543374946179e+01,3.999987919338992981e+01,3.999951679372109936e+01,-1.796978136667390231e+02,-1.793956441441484913e+02
2.910717118066605025e+01,3.999988356302439030e+01,3.999953427082687796e+01,-1.797033290894138986e+02,-1.794066740857569187e+02
2.964831389524342242e+01,3.999988777460907130e+01,3.999955111583523149e+01,-1.797087438496290304e+02,-1.794175027510293319e+02
3.019951720402016093e+01,3.999989183386048097e+01,3.999956735160503030e+01,-1.797140597843938394e+02,-1.794281338113729305e+02
3.076096814740708041e+01,3.999989574628840217e+01,3.999958300016862722e+01,-1.797192786972039187e+02,-1.794385708713077463e+02
3.133285724315585696e+01,3.999989951720331760e+01,3.999959808276175011e+01,-1.797244023586520427e+02,-1.794488174696807619e+02
3.191537855100761334e+01,3.999990315172365740e+01,3.999961261985233563e+01,-1.797294325070278092e+02,-1.794588770808587128e+02
3.250872973854343684e+01,3.999990665478272689e+01,3.999962663116821204e+01,-1.797343708489066501e+02,-1.794687531158984086e+02
3.311311214825911264e+01,3.999991003113539989e+01,3.999964013572389376e+01,-1.797392190597277875e+02,-1.794784489236972433e+02
3.372873086588688807e+01,3.999991328536459179e+01,3.999965315184635273e+01,-1.797439787843620138e+02,-1.794879677921219923e+02
3.435579478998746339e+01,3.999991642188743413e+01,3.999966569719987319e+01,-1.797486516376689281e+02,-1.794973129491179122e+02
3.499451670283573179e+01,3.999991944496133556e+01,3.999967778881000413e+01,-1.797532392050441103e+02,-1.795064875637974922e+02
3.564511334262442688e+01,3.999992235868968748e+01,3.999968944308665186e+01,-1.797577430429563492e+02,-1.795154947475100755e+02
3.630780547701014171e+01,3.999992516702749867e+01,3.999970067584632716e+01,-1.797621646794750916e+02,-1.795243375548913889e+02
3.698281797802662396e+01,3.999992787378670300e+01,3.999971150233362494e+01,-1.797665056147882865e+02,-1.795330189848951932e+02
3.767037989839089107e+01,3.999993048264138196e+01,3.999972193724183711e+01,-1.797707673217107072e+02,-1.795415419818053522e+02
3.837072454922788012e+01,3.999993299713271711e+01,3.999973199473296148e+01,-1.797749512461832921e+02,-1.795499094362302799e+02
3.908408957924021365e+01,3.999993542067382890e+01,3.999974168845686506e+01,-1.797790588077630787e+02,-1.795581241860790840e+02
3.981071705534973404e+01,3.999993775655437389e+01,3.999975103156977951e+01,-1.797830914001044107e+02,-1.795661890175201734e+02
4.055085354483838955e+01,3.999994000794502114e+01,3.999976003675219971e+01,-1.797870503914312792e+02,-1.795741066659227272e+02
4.130475019901614786e+01,3.999994217790178652e+01,3.999976871622605756e+01,-1.797909371250011645e+02,-1.795818798167808836e+02
4.207266283844441546e+01,3.999994426937011127e+01,3.999977708177127766e+01,-1.797947529195604943e+02,-1.795895111066213587e+02
4.285485203974396740e+01,3.999994628518894046e+01,3.999978514474181424e+01,-1.797984990697914327e+02,-1.795970031238943534e+02
4.365158322401661195e+01,3.999994822809452444e+01,3.999979291608099885e+01,-1.798021768467509673e+02,-1.796043584098491408e+02
4.446312674691088773e+01,3.999995010072413493e+01,3.999980040633641920e+01,-1.798057874983019246e+02,-1.796115794593925443e+02
4.528975799036209082e+01,3.999995190561966751e+01,3.999980762567422232e+01,-1.798093322495357143e+02,-1.796186687219332896e+02
4.613175745603795264e+01,3.999995364523108066e+01,3.999981458389287070e+01,-1.798128123031881103e+02,-1.796256286022098152e+02
4.698941086052155924e+01,3.999995532191970682e+01,3.999982129043652179e+01,-1.798162288400466196e+02,-1.796324614611038442e+02
4.786300923226384896e+01,3.999995693796148544e+01,3.999982775440773253e+01,-1.798195830193511711e+02,-1.796391696164391476e+02
4.875284901033865026e+01,3.999995849555001826e+01,3.999983398457990802e+01,-1.798228759791870743e+02,-1.796457553437652450e+02
4.965923214503362715e+01,3.999995999679958203e+01,3.999983998940911789e+01,-1.798261088368707874e+02,-1.796522208771278599e+02
5.058246620031141561e+01,3.999996144374797780e+01,3.999984577704565680e+01,-1.798292826893291192e+02,-1.796585684098243973e+02
5.152286445817566829e+01,3.999996283835929489e+01,3.999985135534502945e+01,-1.798323986134708434e+02,-1.796648000951464894e+02
5.248074602497728591e+01,3.999996418252657548e+01,3.999985673187865842e+01,-1.798354576665520597e+02,-1.796709180471086427e+02
5.345643593969719376e+01,3.999996547807441516e+01,3.999986191394410184e+01,-1.798384608865347900e+02,-1.796769243411638683e+02
5.445026528424213552e+01,3.999996672676138587e+01,3.999986690857503646e+01,-1.798414092924388683e+02,-1.796828210149060681e+02
5.546257129579110057e+01,3.999996793028246600e+01,3.999987172255072920e+01,-1.798443038846875481e+02,-1.796886100687601413e+02
5.649369748123028501e+01,3.999996909027133540e+01,3.999987636240526712e+01,-1.798471456454468012e+02,-1.796942934666589053e+02
5.754399373371572324e+01,3.999997020830256389e+01,3.999988083443643916e+01,-1.798499355389583911e+02,-1.796998731367083906e+02
5.861381645140290431e+01,3.999997128589378548e+01,3.999988514471422718e+01,-1.798526745118669510e+02,-1.797053509718405166e+02
5.970352865838371770e+01,3.999997232450773765e+01,3.999988929908910507e+01,-1.798553634935410344e+02,-1.797107288304542863e+02
6.081350012787182635e+01,3.999997332555423668e+01,3.999989330319995418e+01,-1.798580033963882556e+02,-1.797160085370450133e+02
6.194410750767818286e+01,3.999997429039213159e+01,3.999989716248169458e+01,-1.798605951161648306e+02,-1.797211918828224668e+02
6.309573444801936404e+01,3.999997522033109476e+01,3.999990088217269602e+01,-1.798631395322794049e+02,-1.797262806263174468e+02
6.426877173170200308e+01,3.999997611663345509e+01,3.999990446732184779e+01,-1.798656375080912539e+02,-1.797312764939774752e+02
6.546361740672753626e+01,3.999997698051584649e+01,3.999990792279546525e+01,-1.798680898912031978e+02,-1.797361811807517427e+02
6.668067692136224878e+01,3.999997781315094159e+01,3.999991125328382680e+01,-1.798704975137490578e+02,-1.797409963506652559e+02
6.792036326171850646e+01,3.999997861566895807e+01,3.999991446330759004e+01,-1.798728611926759697e+02,-1.797457236373825822e+02
6.918309709189362877e+01,3.999997938915925744e+01,3.999991755722390252e+01,-1.798751817300214668e+02,-1.797503646447614756e+02
7.046930689671467007e+01,3.999998013467178026e+01,3.999992053923232760e+01,-1.798774599131854757e+02,-1.797549209473962719e+02
7.177942912713615442e+01,3.999998085321851704e+01,3.999992341338053592e+01,-1.798796965151975371e+02,-1.797593940911514494e+02
7.311390834834172381e+01,3.999998154577482268e+01,3.999992618356979790e+01,-1.798818922949789396e+02,-1.797637855936854976e+02
7.447319739059888377e+01,3.999998221328080206e+01,3.999992885356027728e+01,-1.798840479976002200e+02,-1.797680969449652082e+02
7.585775750291836061e+01,3.999998285664253217e+01,3.999993142697615411e+01,-1.798861643545337756e+02,-1.797723296077707005e+02
7.726805850957020994e+01,3.999998347673332688e+01,3.999993390731050624e+01,-1.798882420839021847e+02,-1.797764850181910674e+02
7.870457896950985344e+01,3.999998407439492354e+01,3.999993629793007699e+01,-1.798902818907217522e+02,-1.797805645861114101e+02
8.016780633876788897e+01,3.999998465043859142e+01,3.999993860207985819e+01,-1.798922844671416215e+02,-1.797845696956901804e+02
8.165823713585920984e+01,3.999998520564626858e+01,3.999994082288744579e+01,-1.798942504926785944e+02,-1.797885017058290202e+02
8.317637711026708303e+01,3.999998574077160640e+01,3.999994296336733157e+01,-1.798961806344477168e+02,-1.797923619506329374e+02
8.472274141405962666e+01,3.999998625654100692e+01,3.999994502642496741e+01,-1.798980755473885438e+02,-1.797961517398626938e+02
8.629785477669700811e+01,3.999998675365458212e+01,3.999994701486072302e+01,-1.798999358744873405e+02,-1.797998723593788668e+02
8.790225168308842285e+01,3.999998723278712021e+01,3.999994893137368024e+01,-1.799017622469951903e+02,-1.798035250715776669e+02
8.953647655495937840e+01,3.999998769458902359e+01,3.999995077856528525e+01,-1.799035552846421524e+02,-1.798071111158191115e+02
9.120108393559097237e+01,3.999998813968714728e+01,3.999995255894291546e+01,-1.799053155958476395e+02,-1.798106317088469552e+02
9.289663867799363572e+01,3.999998856868567998e+01,3.999995427492323330e+01,-1.799070437779265887e+02,-1.798140880452014869e+02
9.462371613657930425e+01,3.999998898216695409e+01,3.999995592883551154e+01,-1.799087404172923073e+02,-1.798174812976243402e+02
9.638290236239704711e+01,3.999998938069224153e+01,3.999995752292476681e+01,-1.799104060896553676e+02,-1.798208126174562551e+02
9.817479430199843193e+01,3.999998976480252111e+01,3.999995905935480778e+01,-1.799120413602188933e+02,-1.798240831350274789e+02
1.000000000000000000e+02,3.999999013501918910e+01,3.999996054021119107e+01,-1.799136467838703197e+02,-1.798272939600409188e+02
1.018591388054116891e+02,3.999999049184478395e+01,3.999996196750403499e+01,-1.799152229053696885e+02,-1.798304461819486448e+02
1.037528415818012633e+02,3.999999083576368264e+01,3.999996334317074087e+01,-1.799167702595345020e+02,-1.798335408703210305e+02
1.056817509213658610e+02,3.999999116724271175e+01,3.999996466907865056e+01,-1.799182893714210252e+02,-1.798365790752098690e+02
1.076465213629834778e+02,3.999999148673185800e+01,3.999996594702756170e+01,-1.799197807565026039e+02,-1.798395618275040704e+02
1.096478196143185215e+02,3.999999179466478694e+01,3.999996717875217200e+01,-1.799212449208444582e+02,-1.798424901392795334e+02
1.116863247780561181e+02,3.999999209145950374e+01,3.999996836592443117e+01,-1.799226823612753776e+02,-1.798453650041421383e+02
1.137627285823431009e+02,3.999999237751887904e+01,3.999996951015580748e+01,-1.799240935655563760e+02,-1.798481873975649989e+02
1.158777356155126341e+02,3.999999265323123865e+01,3.999997061299951184e+01,-1.799254790125459920e+02,-1.798509582772190640e+02
1.180320635651729759e+02,3.999999291897081832e+01,3.999997167595254410e+01,-1.799268391723629748e+02,-1.798536785832980911e+02
1.202264434617412974e+02,3.999999317509835350e+01,3.999997270045777498e+01,-1.799281745065457301e+02,-1.798563492388373106e+02
1.224616199265048948e+02,3.999999342196153407e+01,3.999997368790588581e+01,-1.799294854682088101e+02,-1.798589711500268038e+02
1.247383514242943221e+02,3.999999365989542355e+01,3.999997463963724442e+01,-1.799307725021967315e+02,-1.798615452065184854e+02
1.270574105208541908e+02,3.999999388922304178e+01,3.999997555694373830e+01,-1.799320360452349519e+02,-1.798640722817281699e+02
1.294195841449986233e+02,3.999999411025565621e+01,3.999997644107055095e+01,-1.799332765260779752e+02,-1.798665532331315831e+02
1.318256738556407299e+02,3.999999432329332194e+01,3.999997729321781037e+01,-1.799344943656547855e+02,-1.798689889025555431e+02
1.342764961137864077e+02,3.999999452862521565e+01,3.999997811454222330e+01,-1.799356899772118652e+02,-1.798713801164630297e+02
1.367728825595849571e+02,3.999999472653006194e+01,3.999997890615867391e+01,-1.799368637664531718e+02,-1.798737276862339343e+02
1.393156802945303525e+02,3.999999491727650991e+01,3.999997966914172309e+01,-1.799380161316778981e+02,-1.798760324084401532e+02
1.419057521689092596e+02,3.999999510112347423e+01,3.999998040452705794e+01,-1.799391474639156741e+02,-1.798782950651155943e+02
1.445439770745927888e+02,3.999999527832052593e+01,3.999998111331290573e+01,-1.799402581470591542e+02,-1.798805164240217778e+02
1.472312502432719441e+02,3.999999544910819793e+01,3.999998179646138396e+01,-1.799413485579943028e+02,-1.798826972389081220e+02
1.499684835502374085e+02,3.999999561371831192e+01,3.999998245489982196e+01,-1.799424190667282346e+02,-1.798848382497675402e+02
1.527566058238073197e+02,3.999999577237432646e+01,3.999998308952199011e+01,-1.799434700365148956e+02,-1.798869401830876598e+02
1.555965631605075146e+02,3.999999592529159997e+01,3.999998370118934332e+01,-1.799445018239781291e+02,-1.798890037520971248e+02
1.584893192461114211e+02,3.999999607267771751e+01,3.999998429073217210e+01,-1.799455147792328091e+02,-1.798910296570076071e+02
1.614358556826487074e+02,3.999999621473273237e+01,3.999998485895073941e+01,-1.799465092460036146e+02,-1.798930185852513546e+02
1.644371723214932786e+02,3.999999635164948586e+01,3.999998540661635360e+01,-1.799474855617415869e+02,-1.798949712117142496e+02
1.674942876026438228e+02,3.999999648361384175e+01,3.999998593447243422e+01,-1.799484440577387829e+02,-1.798968881989650868e+02
1.706082389003124433e+02,3.999999661080491364e+01,3.999998644323550678e+01,-1.799493850592404556e+02,-1.798987701974799620e+02
1.737800828749376478e+02,3.999999673339535633e+01,3.999998693359617619e+01,-1.799503088855556996e+02,-1.799006178458632519e+02
1.770108958317422037e+02,3.999999685155159312e+01,3.999998740622007176e+01,-1.799512158501655108e+02,-1.799024317710640446e+02
1.803017740859569926e+02,3.999999696543400773e+01,3.999998786174874965e+01,-1.799521062608293960e+02,-1.799042125885889902e+02
1.836538343348347553e+02,3.999999707519718584e+01,3.999998830080055967e+01,-1.799529804196895952e+02,-1.799059609027110582e+02
1.870682140365801729e+02,3.999999718099012824e+01,3.999998872397148375e+01,-1.799538386233737697e+02,-1.799076773066745432e+02
1.905460717963248385e+02,3.999999728295642853e+01,3.999998913183593174e+01,-1.799546811630955574e+02,-1.799093623828962620e+02
1.940885877592779707e+02,3.999999738123452175e+01,3.999998952494755855e+01,-1.799555083247533958e+02,-1.799110167031633409e+02
1.976969640111861963e+02,3.999999747595779809e+01,3.999998990383999597e+01,-1.799563203890275531e+02,-1.799126408288269658e+02
2.013724249862389399e+02,3.999999756725484445e+01,3.999999026902754906e+01,-1.799571176314754268e+02,-1.799142353109930355e+02
2.051162178825566684e+02,3.999999765524958661e+01,3.999999062100594927e+01,-1.799579003226248233e+02,-1.799158006907089771e+02
2.089296130854040712e+02,3.999999774006148101e+01,3.999999096025295842e+01,-1.799586687280660726e+02,-1.799173374991474930e+02
2.128139045982713355e+02,3.999999782180563557e+01,3.999999128722911479e+01,-1.799594231085418699e+02,-1.799188462577865266e+02
2.167704104819696340e+02,3.999999790059303706e+01,3.999999160237823759e+01,-1.799601637200359505e+02,-1.799203274785863584e+02
2.208004733018901504e+02,3.999999797653062217e+01,3.999999190612813038e+01,-1.799608908138597769e+02,-1.799217816641633760e+02
2.249054605835782752e+02,3.999999804972146933e+01,3.999999219889111401e+01,-1.799616046367379738e+02,-1.799232093079604340e+02
2.290867652767774700e+02,3.999999812026493373e+01,3.999999248106460215e+01,-1.799623054308918881e+02,-1.799246108944143430e+02
2.333458062281004572e+02,3.999999818825676812e+01,3.999999275303160573e+01,-1.799629934341219837e+02,-1.799259868991202325e+02
2.376840286624878331e+02,3.999999825378927909e+01,3.999999301516132277e+01,-1.799636688798882744e+02,-1.799273377889928156e+02
2.421029046736180135e+02,3.999999831695141239e+01,3.999999326780955755e+01,-1.799643319973897917e+02,-1.799286640224251244e+02
2.466039337234341247e+02,3.999999837782890921e+01,3.999999351131927483e+01,-1.799649830116421754e+02,-1.799299660494436068e+02
2.511886431509582280e+02,3.999999843650441278e+01,3.999999374602102620e+01,-1.799656221435541283e+02,-1.799312443118611498e+02
2.558585886905647726e+02,3.999999849305756783e+01,3.999999397223339770e+01,-1.799662496100023361e+02,-1.799324992434267756e+02
2.606153549998897461e+02,3.999999854756513429e+01,3.999999419026345748e+01,-1.799668656239050222e+02,-1.799337312699729807e+02
2.654605561975541832e+02,3.999999860010111519e+01,3.999999440040716081e+01,-1.799674703942943665e+02,-1.799349408095600609e+02
2.703958364108846126e+02,3.999999865073681349e+01,3.999999460294977638e+01,-1.799680641263871053e+02,-1.799361282726181344e+02
2.754228703338168884e+02,3.999999869954097420e+01,3.999999479816623449e+01,-1.799686470216545615e+02,-1.799372940620862096e+02
2.805433637951716150e+02,3.999999874657984122e+01,3.999999498632153205e+01,-1.799692192778906872e+02,-1.799384385735489502e+02
2.857590543374949448e+02,3.999999879191726393e+01,3.999999516767107366e+01,-1.799697810892793655e+02,-1.799395621953710531e+02
2.910717118066608009e+02,3.999999883561479663e+01,3.999999534246103394e+01,-1.799703326464602071e+02,-1.799406653088288692e+02
2.964831389524345582e+02,3.999999887773173413e+01,3.999999551092868444e+01,-1.799708741365932951e+02,-1.799417482882398360e+02
3.019951720402019077e+02,3.999999891832527510e+01,3.999999567330269912e+01,-1.799714057434227072e+02,-1.799428115010893237e+02
3.076096814740711238e+02,3.999999895745049372e+01,3.999999582980348123e+01,-1.799719276473387310e+02,-1.799438553081556620e+02
3.133285724315588823e+02,3.999999899516052437e+01,3.999999598064349726e+01,-1.799724400254393402e+02,-1.799448800636321835e+02
3.191537855100764887e+02,3.999999903150654745e+01,3.999999612602748300e+01,-1.799729430515898798e+02,-1.799458861152476459e+02
3.250872973854347379e+02,3.999999906653789594e+01,3.999999626615278459e+01,-1.799734368964825535e+02,-1.799468738043841824e+02
3.311311214825913680e+02,3.999999910030212646e+01,3.999999640120962852e+01,-1.799739217276939485e+02,-1.799478434661930919e+02
3.372873086588692217e+02,3.999999913284507613e+01,3.999999653138134192e+01,-1.799743977097420498e+02,-1.799487954297084116e+02
3.435579478998749892e+02,3.999999916421091228e+01,3.999999665684461547e+01,-1.799748650041421456e+02,-1.799497300179589558e+02
3.499451670283576732e+02,3.999999919444221774e+01,3.999999677776976625e+01,-1.799753237694615109e+02,-1.799506475480775123e+02
3.564511334262446667e+02,3.999999922358002635e+01,3.999999689432093675e+01,-1.799757741613731525e+02,-1.799515483314086168e+02
3.630780547701017440e+02,3.999999925166389403e+01,3.999999700665634350e+01,-1.799762163327089013e+02,-1.799524326736143962e+02
3.698281797802666233e+02,3.999999927873193428e+01,3.999999711492846899e+01,-1.799766504335109687e+02,-1.799533008747779377e+02
3.767037989839092802e+02,3.999999930482091060e+01,3.999999721928429608e+01,-1.799770766110830778e+02,-1.799541532295051809e+02
3.837072454922792417e+02,3.999999932996621510e+01,3.999999731986546436e+01,-1.799774950100403430e+02,-1.799549900270251328e+02
3.908408957924024776e+02,3.999999935420198227e+01,3.999999741680851884e+01,-1.799779057723582980e+02,-1.799558115512877805e+02
3.981071705534977241e+02,3.999999937756112445e+01,3.999999751024504491e+01,-1.799783090374212691e+02,-1.799566180810603839e+02
4.055085354483843503e+02,3.999999940007534605e+01,3.999999760030188867e+01,-1.799787049420694132e+02,-1.799574098900224044e+02
4.130475019901610381e+02,3.999999942177520751e+01,3.999999768710128478e+01,-1.799790936206453296e+02,-1.799581872468579320e+02
4.207266283844437567e+02,3.999999944269016083e+01,3.999999777076106966e+01,-1.799794752050396198e+02,-1.799589504153472319e+02
4.285485203974392334e+02,3.999999946284859931e+01,3.999999785139480224e+01,-1.799798498247355383e+02,-1.799596996544558749e+02
4.365158322401656505e+02,3.999999948227789304e+01,3.999999792911192742e+01,-1.799802176068531310e+02,-1.799604352184230436e+02
4.446312674691083657e+02,3.999999950100440316e+01,3.999999800401796080e+01,-1.799805786761921240e+02,-1.799611573568475080e+02
4.528975799036204535e+02,3.999999951905355999e+01,3.999999807621455972e+01,-1.799809331552744993e+02,-1.799618663147722657e+02
4.613175745603790574e+02,3.999999953644986306e+01,3.999999814579973645e+01,-1.799812811643858481e+02,-1.799625623327679591e+02
4.698941086052150808e+02,3.999999955321692369e+01,3.999999821286796475e+01,-1.799816228216164404e+02,-1.799632456470142756e+02
4.786300923226380064e+02,3.999999956937750056e+01,3.999999827751026515e+01,-1.799819582429010438e+02,-1.799639164893802104e+02
4.875284901033859910e+02,3.999999958495353525e+01,3.999999833981438258e+01,-1.799822875420584580e+02,-1.799645750875027090e+02
4.965923214503357599e+02,3.999999959996617349e+01,3.999999839986490713e+01,-1.799826108308300263e+02,-1.799652216648638330e+02
5.058246620031137581e+02,3.999999961443578655e+01,3.999999845774334517e+01,-1.799829282189176070e+02,-1.799658564408667019e+02
5.152286445817561571e+02,3.999999962838202094e+01,3.999999851352826852e+01,-1.799832398140207204e+02,-1.799664796309099870e+02
5.248074602497722481e+02,3.999999964182380552e+01,3.999999856729539260e+01,-1.799835457218732415e+02,-1.799670914464608416e+02
5.345643593969713265e+02,3.999999965477938701e+01,3.999999861911770438e+01,-1.799838460462790977e+02,-1.799676920951266652e+02
5.445026528424208436e+02,3.999999966726635137e+01,3.999999866906556178e+01,-1.799841408891476817e+02,-1.799682817807257038e+02
5.546257129579104230e+02,3.999999967930165212e+01,3.999999871720675770e+01,-1.799844303505282426e+02,-1.799688607033561709e+02
5.649369748123021964e+02,3.999999969090162466e+01,3.999999876360662654e+01,-1.799847145286439343e+02,-1.799694290594639767e+02
5.754399373371566071e+02,3.999999970208201461e+01,3.999999880832817922e+01,-1.799849935199251831e+02,-1.799699870419095191e+02
5.861381645140285173e+02,3.999999971285799916e+01,3.999999885143211031e+01,-1.799852674190424295e+02,-1.799705348400332809e+02
5.970352865838366370e+02,3.999999972324420128e+01,3.999999889297691880e+01,-1.799855363189379887e+02,-1.799710726397196936e+02
6.081350012787175956e+02,3.999999973325473235e+01,3.999999893301902176e+01,-1.799858003108579680e+02,-1.799716006234604890e+02
6.194410750767812033e+02,3.999999974290317084e+01,3.999999897161276152e+01,-1.799860594843829347e+02,-1.799721189704167159e+02
6.309573444801930009e+02,3.999999975220261206e+01,3.999999900881053350e+01,-1.799863139274585535e+02,-1.799726278564791926e+02
6.426877173170194055e+02,3.999999976116568234e+01,3.999999904466281464e+01,-1.799865637264251745e+02,-1.799731274543284769e+02
6.546361740672747374e+02,3.999999976980455330e+01,3.999999907921829134e+01,-1.799868089660473061e+02,-1.799736179334932729e+02
6.668067692136219193e+02,3.999999977813095597e+01,3.999999911252386653e+01,-1.799870497295423490e+02,-1.799740994604081834e+02
6.792036326171842120e+02,3.999999978615616669e+01,3.999999914462473782e+01,-1.799872860986088199e+02,-1.799745721984699856e+02
6.918309709189362593e+02,3.999999979389110649e+01,3.999999917556449702e+01,-1.799875181534540616e+02,-1.799750363080931095e+02
7.046930689671467007e+02,3.999999980134626298e+01,3.999999920538513010e+01,-1.799877459728214149e+02,-1.799754919467641798e+02
7.177942912713615442e+02,3.999999980853176851e+01,3.999999923412711667e+01,-1.799879696340170767e+02,-1.799759392690952211e+02
7.311390834834173802e+02,3.999999981545735750e+01,3.999999926182948684e+01,-1.799881892129362200e+02,-1.799763784268764084e+02
7.447319739059888661e+02,3.999999982213245175e+01,3.999999928852983544e+01,-1.799884047840887433e+02,-1.799768095691275107e+02
7.585775750291835493e+02,3.999999982856608938e+01,3.999999931426440014e+01,-1.799886164206246235e+02,-1.799772328421482257e+02
7.726805850957022130e+02,3.999999983476702425e+01,3.999999933906812544e+01,-1.799888241943586991e+02,-1.799776483895680883e+02
7.870457896950985059e+02,3.999999984074365500e+01,3.999999936297467684e+01,-1.799890281757950277e+02,-1.799780563523950150e+02
8.016780633876788897e+02,3.999999984650411733e+01,3.999999938601649774e+01,-1.799892284341508173e+02,-1.799784568690633648e+02
8.165823713585922405e+02,3.999999985205621300e+01,3.999999940822488043e+01,-1.799894250373799593e+02,-1.799788500754806932e+02
8.317637711026708303e+02,3.999999985740748798e+01,3.999999942962996613e+01,-1.799896180521959934e+02,-1.799792361050740510e+02
8.472274141405963519e+02,3.999999986256519691e+01,3.999999945026080184e+01,-1.799898075440948446e+02,-1.799796150888350610e+02
8.629785477669702232e+02,3.999999986753634573e+01,3.999999947014541135e+01,-1.799899935773769926e+02,-1.799799871553646824e+02
8.790225168308842285e+02,3.999999987232768461e+01,3.999999948931075977e+01,-1.799901762151692424e+02,-1.799803524309163834e+02
8.953647655495936988e+02,3.999999987694571502e+01,3.999999950778289559e+01,-1.799903555194463252e+02,-1.799807110394394840e+02
9.120108393559096385e+02,3.999999988139671103e+01,3.999999952558687255e+01,-1.799905315510517028e+02,-1.799810631026208227e+02
9.289663867799363288e+02,3.999999988568670517e+01,3.999999954274684910e+01,-1.799907043697183440e+02,-1.799814087399263371e+02
9.462371613657928719e+02,3.999999988982153099e+01,3.999999955928614526e+01,-1.799908740340890176e+02,-1.799817480686413376e+02
9.638290236239706701e+02,3.999999989380679466e+01,3.999999957522719285e+01,-1.799910406017360742e+02,-1.799820812039106102e+02
9.817479430199844046e+02,3.999999989764790342e+01,3.999999959059163501e+01,-1.799912041291811136e+02,-1.799824082587770988e+02
9.999999999999998863e+02,3.999999990135007977e+01,3.999999960540033328e+01,-1.799913646719140274e+02,-1.799827293442206155e+02
1.018591388054117033e+03,3.999999990491834723e+01,3.999999961967338891e+01,-1.799915222844119853e+02,-1.799830445691954424e+02
1.037528415818012718e+03,3.999999990835754460e+01,3.999999963343017839e+01,-1.799916770201577663e+02,-1.799833540406670522e+02
1.056817509213658468e+03,3.999999991167234015e+01,3.999999964668936059e+01,-1.799918289316580058e+02,-1.799836578636486593e+02
1.076465213629835034e+03,3.999999991486723872e+01,3.999999965946895486e+01,-1.799919780704609877e+02,-1.799839561412367459e+02
1.096478196143185187e+03,3.999999991794656751e+01,3.999999967178629845e+01,-1.799921244871741521e+02,-1.799842489746462206e+02
1.116863247780561096e+03,3.999999992091452583e+01,3.999999968365810332e+01,-1.799922682314812334e+02,-1.799845364632443534e+02
1.137627285823431066e+03,3.999999992377512115e+01,3.999999969510049880e+01,-1.799924093521591431e+02,-1.799848187045850523e+02
1.158777356155126199e+03,3.999999992653225434e+01,3.999999970612901024e+01,-1.799925478970944823e+02,-1.799850957944413494e+02
1.180320635651729845e+03,3.999999992918964864e+01,3.999999971675860877e+01,-1.799926839132998282e+02,-1.799853678268385409e+02
1.202264434617413144e+03,3.999999993175093493e+01,3.999999972700373263e+01,-1.799928174469297346e+02,-1.799856348940855071e+02
1.224616199265048863e+03,3.999999993421956646e+01,3.999999973687827293e+01,-1.799929485432963077e+02,-1.799858970868064887e+02
1.247383514242943193e+03,3.999999993659891118e+01,3.999999974639563760e+01,-1.799930772468845817e+02,-1.799861544939716111e+02
1.270574105208541823e+03,3.999999993889218786e+01,3.999999975556875853e+01,-1.799932036013677248e+02,-1.799864072029269835e+02
1.294195841449986347e+03,3.999999994110251578e+01,3.999999976441007732e+01,-1.799933276496216763e+02,-1.799866552994246263e+02
1.318256738556407527e+03,3.999999994323290053e+01,3.999999977293158793e+01,-1.799934494337398974e+02,-1.799868988676513482e+02
1.342764961137864248e+03,3.999999994528621983e+01,3.999999978114487931e+01,-1.799935689950474966e+02,-1.799871379902573665e+02
1.367728825595849457e+03,3.999999994726526609e+01,3.999999978906107856e+01,-1.799936863741153843e+02,-1.799873727483844164e+02
1.393156802945303525e+03,3.999999994917273938e+01,3.999999979669094330e+01,-1.799938016107738576e+02,-1.799876032216931208e+02
1.419057521689092709e+03,3.999999995101120476e+01,3.999999980404483324e+01,-1.799939147441263572e+02,-1.799878294883903038e+02
1.445439770745927945e+03,3.999999995278317755e+01,3.999999981113272440e+01,-1.799940258125625121e+02,-1.799880516252551672e+02
1.472312502432719384e+03,3.999999995449105938e+01,3.999999981796423754e+01,-1.799941348537712429e+02,-1.799882697076656939e+02
1.499684835502373971e+03,3.999999995613715953e+01,3.999999982454865233e+01,-1.799942419047536646e+02,-1.799884838096239719e+02
1.527566058238073538e+03,3.999999995772371619e+01,3.999999983089489319e+01,-1.799943470018355356e+02,-1.799886940037813758e+02
1.555965631605075032e+03,3.999999995925289653e+01,3.999999983701159323e+01,-1.799944501806794506e+02,-1.799889003614633509e+02
1.584893192461113813e+03,3.999999996072676112e+01,3.999999984290704447e+01,-1.799945514762973175e+02,-1.799891029526934858e+02
1.614358556826486847e+03,3.999999996214731368e+01,3.999999984858924762e+01,-1.799946509230618119e+02,-1.799893018462171597e+02
1.644371723214932672e+03,3.999999996351647980e+01,3.999999985406591918e+01,-1.799947485547183135e+02,-1.799894971095251890e+02
1.674942876026437943e+03,3.999999996483612108e+01,3.999999985934449853e+01,-1.799948444043963320e+02,-1.799896888088764229e+02
1.706082389003124263e+03,3.999999996610803521e+01,3.999999986443214794e+01,-1.799949385046205634e+02,-1.799898770093203950e+02
1.737800828749376251e+03,3.999999996733394170e+01,3.999999986933576679e+01,-1.799950308873221445e+02,-1.799900617747193223e+02
1.770108958317422321e+03,3.999999996851550321e+01,3.999999987406202706e+01,-1.799951215838494250e+02,-1.799902431677699042e+02
1.803017740859569813e+03,3.999999996965433269e+01,3.999999987861731654e+01,-1.799952106249785686e+02,-1.799904212500243830e+02
1.836538343348347325e+03,3.999999997075195779e+01,3.999999988300785247e+01,-1.799952980409239842e+02,-1.799905960819115762e+02
1.870682140365801615e+03,3.999999997180989197e+01,3.999999988723957500e+01,-1.799953838613485573e+02,-1.799907677227573402e+02
1.905460717963248271e+03,3.999999997282955633e+01,3.999999989131822531e+01,-1.799954681153739102e+02,-1.799909362308048060e+02
1.940885877592779025e+03,3.999999997381233641e+01,3.999999989524935273e+01,-1.799955508315900090e+02,-1.799911016632339340e+02
1.976969640111861963e+03,3.999999997475957514e+01,3.999999989903828634e+01,-1.799956320380649970e+02,-1.799912640761810678e+02
2.013724249862389570e+03,3.999999997567253729e+01,3.999999990269017047e+01,-1.799957117623548299e+02,-1.799914235247579768e+02
2.051162178825566571e+03,3.999999997655248762e+01,3.999999990620995760e+01,-1.799957900315123993e+02,-1.799915800630705291e+02
2.089296130854040712e+03,3.999999997740060564e+01,3.999999990960243679e+01,-1.799958668720968262e+02,-1.799917337442369671e+02
2.128139045982713469e+03,3.999999997821804953e+01,3.999999991287220524e+01,-1.799959423101825848e+02,-1.799918846204061538e+02
2.167704104819696113e+03,3.999999997900592064e+01,3.999999991602370386e+01,-1.799960163713681141e+02,-1.799920327427749669e+02
2.208004733018901334e+03,3.999999997976529897e+01,3.999999991906121011e+01,-1.799960890807846567e+02,-1.799921781616060343e+02
2.249054605835782695e+03,3.999999998049720773e+01,3.999999992198884513e+01,-1.799961604631047862e+02,-1.799923209262443606e+02
2.290867652767774871e+03,3.999999998120264877e+01,3.999999992481058086e+01,-1.799962305425507623e+02,-1.799924610851344653e+02
2.333458062281004459e+03,3.999999998188256711e+01,3.999999992753025424e+01,-1.799962993429027165e+02,-1.799925986858366400e+02
2.376840286624878445e+03,3.999999998253788647e+01,3.999999993015156008e+01,-1.799963668875067526e+02,-1.799927337750430070e+02
2.421029046736180135e+03,3.999999998316950922e+01,3.999999993267804399e+01,-1.799964331992828193e+02,-1.799928663985935486e+02
2.466039337234341019e+03,3.999999998377828803e+01,3.999999993511314500e+01,-1.799964983007325827e+02,-1.799929966014915692e+02
2.511886431509582053e+03,3.999999998436504001e+01,3.999999993746016713e+01,-1.799965622139469872e+02,-1.799931244279189855e+02
2.558585886905647840e+03,3.999999998493057518e+01,3.999999993972229362e+01,-1.799966249606137580e+02,-1.799932499212512198e+02
2.606153549998897688e+03,3.999999998547564672e+01,3.999999994190259400e+01,-1.799966865620247916e+02,-1.799933731240720363e+02
2.654605561975541605e+03,3.999999998600100781e+01,3.999999994400403835e+01,-1.799967470390834023e+02,-1.799934940781880357e+02
2.703958364108846126e+03,3.999999998650736899e+01,3.999999994602946174e+01,-1.799968064123112867e+02,-1.799936128246426961e+02
2.754228703338168998e+03,3.999999998699540527e+01,3.999999994798163527e+01,-1.799968647018555998e+02,-1.799937294037302991e+02
2.805433637951716264e+03,3.999999998746579877e+01,3.999999994986318796e+01,-1.799969219274958903e+02,-1.799938438550098567e+02
2.857590543374949448e+03,3.999999998791916767e+01,3.999999995167668487e+01,-1.799969781086505236e+02,-1.799939562173181571e+02
2.910717118066608236e+03,3.999999998835614434e+01,3.999999995342458448e+01,-1.799970332643835320e+02,-1.799940665287832360e+02
2.964831389524345468e+03,3.999999998877731855e+01,3.999999995510926709e+01,-1.799970874134109522e+02,-1.799941748268372237e+02
3.019951720402018964e+03,3.999999998918325161e+01,3.999999995673300646e+01,-1.799971405741072203e+02,-1.799942811482290210e+02
3.076096814740711125e+03,3.999999998957450487e+01,3.999999995829801946e+01,-1.799971927645114818e+02,-1.799943855290367196e+02
3.133285724315588595e+03,3.999999998995160411e+01,3.999999995980641643e+01,-1.799972440023334741e+02,-1.799944880046800222e+02
3.191537855100765228e+03,3.999999999031506803e+01,3.999999996126025792e+01,-1.799972943049598655e+02,-1.799945886099320376e+02
3.250872973854347038e+03,3.999999999066537981e+01,3.999999996266151214e+01,-1.799973436894598251e+02,-1.799946873789313599e+02
3.311311214825914249e+03,3.999999999100302261e+01,3.999999996401208335e+01,-1.799973921725910770e+02,-1.799947843451932670e+02
3.372873086588692331e+03,3.999999999132845119e+01,3.999999996531379765e+01,-1.799974397708054994e+02,-1.799948795416214580e+02
3.435579478998749892e+03,3.999999999164210607e+01,3.999999996656843138e+01,-1.799974865002545812e+02,-1.799949730005191100e+02
3.499451670283577187e+03,3.999999999194442069e+01,3.999999996777768274e+01,-1.799975323767950783e+02,-1.799950647535996211e+02
3.564511334262446326e+03,3.999999999223580005e+01,3.999999996894320020e+01,-1.799975774159943853e+02,-1.799951548319976951e+02
3.630780547701016985e+03,3.999999999251663496e+01,3.999999997006655406e+01,-1.799976216331356227e+02,-1.799952432662797435e+02
3.698281797802666460e+03,3.999999999278732332e+01,3.999999997114927197e+01,-1.799976650432230940e+02,-1.799953300864542598e+02
3.767037989839092916e+03,3.999999999304820619e+01,3.999999997219283188e+01,-1.799977076609872029e+02,-1.799954153219820228e+02
3.837072454922792076e+03,3.999999999329966016e+01,3.999999997319864775e+01,-1.799977495008894266e+02,-1.799954990017860723e+02
3.908408957924024890e+03,3.999999999354201918e+01,3.999999997416807673e+01,-1.799977905771273754e+02,-1.799955811542616289e+02
3.981071705534977355e+03,3.999999999377561011e+01,3.999999997510244043e+01,-1.799978309036395103e+02,-1.799956618072855576e+02
4.055085354483843275e+03,3.999999999400075268e+01,3.999999997600301072e+01,-1.799978704941098613e+02,-1.799957409882258617e+02
4.130475019901618907e+03,3.999999999421775243e+01,3.999999997687100972e+01,-1.799979093619726598e+02,-1.799958187239512029e+02
4.207266283844445752e+03,3.999999999442690068e+01,3.999999997770760274e+01,-1.799979475204170285e+02,-1.799958950408396277e+02
4.285485203974391879e+03,3.999999999462848876e+01,3.999999997851394085e+01,-1.799979849823913014e+02,-1.799959699647878324e+02
4.365158322401656733e+03,3.999999999482277957e+01,3.999999997929111117e+01,-1.799980217606074859e+02,-1.799960435212199457e+02
4.446312674691083885e+03,3.999999999501004311e+01,3.999999998004017954e+01,-1.799980578675455547e+02,-1.799961157350958842e+02
4.528975799036204080e+03,3.999999999519053517e+01,3.999999998076214069e+01,-1.799980933154577656e+02,-1.799961866309199934e+02
4.613175745603790347e+03,3.999999999536449735e+01,3.999999998145798941e+01,-1.799981281163726408e+02,-1.799962562327495448e+02
4.698941086052151149e+03,3.999999999553217123e+01,3.999999998212867780e+01,-1.799981622820992300e+02,-1.799963245642025242e+02
4.786300923226380291e+03,3.999999999569377707e+01,3.999999998277510116e+01,-1.799981958242310611e+02,-1.799963916484659876e+02
4.875284901033860478e+03,3.999999999584953514e+01,3.999999998339814056e+01,-1.799982287541499488e+02,-1.799964575083035925e+02
4.965923214503357485e+03,3.999999999599965861e+01,3.999999998399864154e+01,-1.799982610830301155e+02,-1.799965221660637837e+02
5.058246620031137354e+03,3.999999999614435353e+01,3.999999998457742834e+01,-1.799982928218417442e+02,-1.799965856436867568e+02
5.152286445817561798e+03,3.999999999628381886e+01,3.999999998513528254e+01,-1.799983239813547300e+02,-1.799966479627126432e+02
5.248074602497723390e+03,3.999999999641823933e+01,3.999999998567295023e+01,-1.799983545721425173e+02,-1.799967091442880758e+02
5.345643593969713947e+03,3.999999999654779259e+01,3.999999998619117747e+01,-1.799983846045855387e+02,-1.799967692091739195e+02
5.445026528424208664e+03,3.999999999667266337e+01,3.999999998669065349e+01,-1.799984140888746538e+02,-1.799968281777520076e+02
5.546257129579104912e+03,3.999999999679301510e+01,3.999999998717206751e+01,-1.799984430350148443e+02,-1.799968860700323035e+02
5.649369748123022873e+03,3.999999999690901831e+01,3.999999998763606612e+01,-1.799984714528284826e+02,-1.799969429056594095e+02
5.754399373371566071e+03,3.999999999702082221e+01,3.999999998808328172e+01,-1.799984993519585146e+02,-1.799969987039194450e+02
5.861381645140284490e+03,3.999999999712858312e+01,3.999999998851431826e+01,-1.799985267418720980e+02,-1.799970534837464129e+02
5.970352865838365688e+03,3.999999999723244315e+01,3.999999998892977260e+01,-1.799985536318633592e+02,-1.799971072637288785e+02
6.081350012787176638e+03,3.999999999733254441e+01,3.999999998933019185e+01,-1.799985800310570028e+02,-1.799971600621160519e+02
6.194410750767811805e+03,3.999999999742902901e+01,3.999999998971612314e+01,-1.799986059484110683e+02,-1.799972118968240409e+02
6.309573444801931146e+03,3.999999999752202484e+01,3.999999999008809937e+01,-1.799986313927200570e+02,-1.799972627854420182e+02
6.426877173170193601e+03,3.999999999761165981e+01,3.999999999044662502e+01,-1.799986563726181146e+02,-1.799973127452380197e+02
6.546361740672747146e+03,3.999999999769804759e+01,3.999999999079217616e+01,-1.799986808965816465e+02,-1.799973617931649699e+02
6.668067692136218284e+03,3.999999999778130899e+01,3.999999999112523597e+01,-1.799987049729323871e+02,-1.799974099458663943e+02
6.792036326171843029e+03,3.999999999786156479e+01,3.999999999144624496e+01,-1.799987286098401853e+02,-1.799974572196819622e+02
6.918309709189362366e+03,3.999999999793891448e+01,3.999999999175564369e+01,-1.799987518153258463e+02,-1.799975036306531422e+02
7.046930689671467007e+03,3.999999999801346462e+01,3.999999999205385137e+01,-1.799987745972636333e+02,-1.799975491945286876e+02
7.177942912713614533e+03,3.999999999808531470e+01,3.999999999234127301e+01,-1.799987969633841942e+02,-1.799975939267697527e+02
7.311390834834171983e+03,3.999999999815457130e+01,3.999999999261829231e+01,-1.799988189212770351e+02,-1.799976378425553776e+02
7.447319739059888889e+03,3.999999999822132679e+01,3.999999999288529295e+01,-1.799988404783931628e+02,-1.799976809567876330e+02
7.585775750291835720e+03,3.999999999828565933e+01,3.999999999314263732e+01,-1.799988616420476149e+02,-1.799977232840964234e+02
7.726805850957020994e+03,3.999999999834766840e+01,3.999999999339068069e+01,-1.799988824194218182e+02,-1.799977648388448017e+02
7.870457896950984832e+03,3.999999999840743925e+01,3.999999999362974279e+01,-1.799989028175662327e+02,-1.799978056351335169e+02
8.016780633876789580e+03,3.999999999846504295e+01,3.999999999386016469e+01,-1.799989228434025108e+02,-1.799978456868060164e+02
8.165823713585922633e+03,3.999999999852056476e+01,3.999999999408225193e+01,-1.799989425037260844e+02,-1.799978850074531920e+02
8.317637711026709439e+03,3.999999999857407573e+01,3.999999999429629582e+01,-1.799989618052083529e+02,-1.799979236104176437e+02
8.472274141405963746e+03,3.999999999862565403e+01,3.999999999450260901e+01,-1.799989807543988434e+02,-1.799979615087985678e+02
8.629785477669702232e+03,3.999999999867536360e+01,3.999999999470145440e+01,-1.799989993577275982e+02,-1.799979987154561343e+02
8.790225168308841603e+03,3.999999999872328260e+01,3.999999999489310909e+01,-1.799990176215073916e+02,-1.799980352430156358e+02
8.953647655495937215e+03,3.999999999876945367e+01,3.999999999507782888e+01,-1.799990355519356058e+02,-1.799980711038720074e+02
9.120108393559095930e+03,3.999999999881396917e+01,3.999999999525586247e+01,-1.799990531550966182e+02,-1.799981063101940322e+02
9.289663867799363288e+03,3.999999999885686464e+01,3.999999999542746565e+01,-1.799990704369637342e+02,-1.799981408739282642e+02
9.462371613657929629e+03,3.999999999889821822e+01,3.999999999559286579e+01,-1.799990874034012620e+02,-1.799981748068032061e+02
9.638290236239705337e+03,3.999999999893806546e+01,3.999999999575226894e+01,-1.799991040601663599e+02,-1.799982081203334587e+02
9.817479430199844501e+03,3.999999999897647740e+01,3.999999999590591671e+01,-1.799991204129112532e+02,-1.799982408258231885e+02
1.000000000000000000e+04,3.999999999901349668e+01,3.999999999605400092e+01,-1.799991364671849112e+02,-1.799982729343705046e+02
1.018591388054116942e+04,3.999999999904918013e+01,3.999999999619673474e+01,-1.799991522284350367e+02,-1.799983044568707555e+02
1.037528415818012581e+04,3.999999999908357040e+01,3.999999999633430292e+01,-1.799991677020099701e+02,-1.799983354040205654e+02
1.056817509213658559e+04,3.999999999911671722e+01,3.999999999646689020e+01,-1.799991828931603095e+02,-1.799983657863212159e+02
1.076465213629834943e+04,3.999999999914867033e+01,3.999999999659468841e+01,-1.799991978070409004e+02,-1.799983956140823977e+02
1.096478196143185050e+04,3.999999999917946525e+01,3.999999999671786099e+01,-1.799992124487124840e+02,-1.799984248974255365e+02
1.116863247780561142e+04,3.999999999920914462e+01,3.999999999683657848e+01,-1.799992268231434593e+02,-1.799984536462875155e+02
1.137627285823430793e+04,3.999999999923775107e+01,3.999999999695100428e+01,-1.799992409352115033e+02,-1.799984818704235465e+02
1.158777356155126108e+04,3.999999999926532013e+01,3.999999999706128762e+01,-1.799992547897052759e+02,-1.799985095794110919e+02
1.180320635651729754e+04,3.999999999929189443e+01,3.999999999716758481e+01,-1.799992683913260407e+02,-1.799985367826525930e+02
1.202264434617413099e+04,3.999999999931750949e+01,3.999999999727003797e+01,-1.799992817446892275e+02,-1.799985634893789666e+02
1.224616199265048999e+04,3.999999999934219375e+01,3.999999999736878209e+01,-1.799992948543260809e+02,-1.799985897086526734e+02
1.247383514242943238e+04,3.999999999936598982e+01,3.999999999746395218e+01,-1.799993077246851101e+02,-1.799986154493707033e+02
1.270574105208541914e+04,3.999999999938891904e+01,3.999999999755568325e+01,-1.799993203601335949e+02,-1.799986407202676730e+02
1.294195841449986256e+04,3.999999999941102402e+01,3.999999999764409608e+01,-1.799993327649591492e+02,-1.799986655299188101e+02
1.318256738556407436e+04,3.999999999943232609e+01,3.999999999772931147e+01,-1.799993449433711419e+02,-1.799986898867427385e+02
1.342764961137864157e+04,3.999999999945286788e+01,3.999999999781145021e+01,-1.799993568995020610e+02,-1.799987137990045767e+02
1.367728825595849412e+04,3.999999999947264939e+01,3.999999999789060467e+01,-1.799993686374089918e+02,-1.799987372748184100e+02
1.393156802945303752e+04,3.999999999949172746e+01,3.999999999796690986e+01,-1.799993801610749813e+02,-1.799987603221503889e+02
1.419057521689092573e+04,3.999999999951011631e+01,3.999999999804045103e+01,-1.799993914744103449e+02,-1.799987829488211162e+02
1.445439770745928035e+04,3.999999999952783014e+01,3.999999999811132767e+01,-1.799994025812540883e+02,-1.799988051625086030e+02
1.472312502432719339e+04,3.999999999954491159e+01,3.999999999817964635e+01,-1.799994134853750722e+02,-1.799988269707505708e+02
1.499684835502374153e+04,3.999999999956137486e+01,3.999999999824548524e+01,-1.799994241904734338e+02,-1.799988483809472655e+02
1.527566058238072947e+04,3.999999999957723418e+01,3.999999999830895092e+01,-1.799994347001817232e+02,-1.799988694003638159e+02
1.555965631605075032e+04,3.999999999959253216e+01,3.999999999837011444e+01,-1.799994450180662113e+02,-1.799988900361328206e+02
1.584893192461114086e+04,3.999999999960726882e+01,3.999999999842906817e+01,-1.799994551476281117e+02,-1.799989102952565645e+02
1.614358556826487074e+04,3.999999999962147257e+01,3.999999999848589027e+01,-1.799994650923046322e+02,-1.799989301846096055e+02
1.644371723214932354e+04,3.999999999963516473e+01,3.999999999854065891e+01,-1.799994748554703676e+02,-1.799989497109410763e+02
1.674942876026438171e+04,3.999999999964835951e+01,3.999999999859344513e+01,-1.799994844404382377e+02,-1.799989688808768449e+02
1.706082389003124263e+04,3.999999999966107822e+01,3.999999999864431999e+01,-1.799994938504607376e+02,-1.799989877009218162e+02
1.737800828749376160e+04,3.999999999967334219e+01,3.999999999869335454e+01,-1.799995030887309611e+02,-1.799990061774622632e+02
1.770108958317422002e+04,3.999999999968515141e+01,3.999999999874061984e+01,-1.799995121583837658e+02,-1.799990243167678727e+02
1.803017740859570040e+04,3.999999999969654141e+01,3.999999999878617274e+01,-1.799995210624967399e+02,-1.799990421249938493e+02
1.836538343348347553e+04,3.999999999970752640e+01,3.999999999883007717e+01,-1.799995298040913383e+02,-1.799990596081830461e+02
1.870682140365801752e+04,3.999999999971809928e+01,3.999999999887239710e+01,-1.799995383861338496e+02,-1.799990767722680403e+02
1.905460717963248317e+04,3.999999999972829556e+01,3.999999999891318225e+01,-1.799995468115364190e+02,-1.799990936230732075e+02
1.940885877592779434e+04,3.999999999973812237e+01,3.999999999895248948e+01,-1.799995550831580999e+02,-1.799991101663165409e+02
1.976969640111862100e+04,3.999999999974759390e+01,3.999999999899038272e+01,-1.799995632038056499e+02,-1.799991264076116408e+02
2.013724249862389479e+04,3.999999999975672438e+01,3.999999999902690462e+01,-1.799995711762346673e+02,-1.799991423524697041e+02
2.051162178825566662e+04,3.999999999976552800e+01,3.999999999906209780e+01,-1.799995790031504725e+02,-1.799991580063012862e+02
2.089296130854040894e+04,3.999999999977400478e+01,3.999999999909602622e+01,-1.799995866872089607e+02,-1.799991733744182625e+02
2.128139045982713287e+04,3.999999999978218312e+01,3.999999999912872539e+01,-1.799995942310175678e+02,-1.799991884620354483e+02
2.167704104819696295e+04,3.999999999979005594e+01,3.999999999916023796e+01,-1.799996016371361804e+02,-1.799992032742726451e+02
2.208004733018901243e+04,3.999999999979765164e+01,3.999999999919061366e+01,-1.799996089080778461e+02,-1.799992178161560048e+02
2.249054605835782786e+04,3.999999999980497023e+01,3.999999999921988802e+01,-1.799996160463099102e+02,-1.799992320926201046e+02
2.290867652767774416e+04,3.999999999981202592e+01,3.999999999924811078e+01,-1.799996230542545277e+02,-1.799992461085093396e+02
2.333458062281004459e+04,3.999999999981882581e+01,3.999999999927530325e+01,-1.799996299342897430e+02,-1.799992598685797986e+02
2.376840286624878354e+04,3.999999999982537702e+01,3.999999999930151517e+01,-1.799996366887501722e+02,-1.799992733775006570e+02
2.421029046736179953e+04,3.999999999983169374e+01,3.999999999932677497e+01,-1.799996433199277988e+02,-1.799992866398559386e+02
2.466039337234341292e+04,3.999999999983778309e+01,3.999999999935113237e+01,-1.799996498300727978e+02,-1.799992996601459083e+02
2.511886431509581962e+04,3.999999999984365218e+01,3.999999999937460160e+01,-1.799996562213942752e+02,-1.799993124427888631e+02
2.558585886905647931e+04,3.999999999984930099e+01,3.999999999939721818e+01,-1.799996624960609779e+02,-1.799993249921222400e+02
2.606153549998897870e+04,3.999999999985475796e+01,3.999999999941902473e+01,-1.799996686562020898e+02,-1.799993373124045206e+02
2.654605561975542150e+04,3.999999999986000887e+01,3.999999999944004259e+01,-1.799996747039079708e+02,-1.799993494078162541e+02
2.703958364108846217e+04,3.999999999986507504e+01,3.999999999946029305e+01,-1.799996806412307819e+02,-1.799993612824618481e+02
2.754228703338168634e+04,3.999999999986995647e+01,3.999999999947981877e+01,-1.799996864701852530e+02,-1.799993729403707903e+02
2.805433637951716446e+04,3.999999999987465316e+01,3.999999999949863394e+01,-1.799996921927492792e+02,-1.799993843854988427e+02
2.857590543374949630e+04,3.999999999987919352e+01,3.999999999951676699e+01,-1.799996978108647454e+02,-1.799993956217298035e+02
2.910717118066608236e+04,3.999999999988356336e+01,3.999999999953424634e+01,-1.799997033264380946e+02,-1.799994066528764733e+02
2.964831389524345286e+04,3.999999999988777688e+01,3.999999999955109331e+01,-1.799997087413408110e+02,-1.799994174826819631e+02
3.019951720402019055e+04,3.999999999989183408e+01,3.999999999956732921e+01,-1.799997140574104719e+02,-1.799994281148212565e+02
3.076096814740711488e+04,3.999999999989574917e+01,3.999999999958297536e+01,-1.799997192764509180e+02,-1.799994385529020917e+02
3.133285724315588959e+04,3.999999999989951505e+01,3.999999999959806019e+01,-1.799997244002331058e+02,-1.799994488004665243e+02
3.191537855100764864e+04,3.999999999990314592e+01,3.999999999961260500e+01,-1.799997294304957620e+02,-1.799994588609918083e+02
3.250872973854347219e+04,3.999999999990664890e+01,3.999999999962661690e+01,-1.799997343689457807e+02,-1.799994687378918741e+02
3.311311214825914794e+04,3.999999999991003108e+01,3.999999999964012432e+01,-1.799997392172589059e+02,-1.799994784345181529e+02
3.372873086588692240e+04,3.999999999991328536e+01,3.999999999965314146e+01,-1.799997439770803567e+02,-1.799994879541610544e+02
3.435579478998749983e+04,3.999999999991642596e+01,3.999999999966568254e+01,-1.799997486500252819e+02,-1.799994973000508480e+02
3.499451670283576823e+04,3.999999999991944577e+01,3.999999999967777597e+01,-1.799997532376793288e+02,-1.799995064753589702e+02
3.564511334262446326e+04,3.999999999992235900e+01,3.999999999968942888e+01,-1.799997577415992680e+02,-1.799995154831988771e+02
3.630780547701017349e+04,3.999999999992516564e+01,3.999999999970066256e+01,-1.799997621633134202e+02,-1.799995243266271530e+02
3.698281797802666551e+04,3.999999999992787281e+01,3.999999999971149123e+01,-1.799997665043221673e+02,-1.799995330086446188e+02
3.767037989839092916e+04,3.999999999993048050e+01,3.999999999972192910e+01,-1.799997707660985782e+02,-1.799995415321974690e+02
3.837072454922792531e+04,3.999999999993299582e+01,3.999999999973199039e+01,-1.799997749500888062e+02,-1.799995499001778967e+02
3.908408957924025162e+04,3.999999999993541877e+01,3.999999999974168219e+01,-1.799997790577126011e+02,-1.799995581154255149e+02
3.981071705534977082e+04,3.999999999993775646e+01,3.999999999975102583e+01,-1.799997830903638487e+02,-1.799995661807279248e+02
4.055085354483843548e+04,3.999999999994000888e+01,3.999999999976002840e+01,-1.799997870494108838e+02,-1.799995740988220234e+02
4.130475019901619089e+04,3.999999999994217603e+01,3.999999999976871123e+01,-1.799997909361971722e+02,-1.799995818723946002e+02
4.207266283844446298e+04,3.999999999994426503e+01,3.999999999977707432e+01,-1.799997947520415948e+02,-1.799995895040835023e+02
4.285485203974400793e+04,3.999999999994629007e+01,3.999999999978513898e+01,-1.799997984982390165e+02,-1.799995969964783455e+02
4.365158322401664918e+04,3.999999999994822275e+01,3.999999999979291232e+01,-1.799998021760606548e+02,-1.799996043521216222e+02
4.446312674691092980e+04,3.999999999995009858e+01,3.999999999980040144e+01,-1.799998057867544787e+02,-1.799996115735092417e+02
4.528975799036212993e+04,3.999999999995190336e+01,3.999999999980762055e+01,-1.799998093315456913e+02,-1.799996186630916668e+02
4.613175745603790710e+04,3.999999999995364419e+01,3.999999999981457677e+01,-1.799998128116371561e+02,-1.799996256232746532e+02
4.698941086052150786e+04,3.999999999995532107e+01,3.999999999982128429e+01,-1.799998162282098519e+02,-1.799996324564199881e+02
4.786300923226379382e+04,3.999999999995693400e+01,3.999999999982775023e+01,-1.799998195824230152e+02,-1.799996391648463430e+02
4.875284901033860660e+04,3.999999999995849720e+01,3.999999999983398169e+01,-1.799998228754149068e+02,-1.799996457508301262e+02
4.965923214503357303e+04,3.999999999995999644e+01,3.999999999983998578e+01,-1.799998261083029547e+02,-1.799996522166061652e+02
5.058246620031137718e+04,3.999999999996144595e+01,3.999999999984576959e+01,-1.799998292821841233e+02,-1.799996585643684739e+02
5.152286445817561616e+04,3.999999999996283861e+01,3.999999999985135446e+01,-1.799998323981354247e+02,-1.799996647962711052e+02
5.248074602497722663e+04,3.999999999996418154e+01,3.999999999985672616e+01,-1.799998354572141750e+02,-1.799996709144286626e+02
5.345643593969713402e+04,3.999999999996547473e+01,3.999999999986191312e+01,-1.799998384604584771e+02,-1.799996769209172953e+02
5.445026528424208664e+04,3.999999999996673239e+01,3.999999999986690824e+01,-1.799998414088874199e+02,-1.799996828177751240e+02
5.546257129579104367e+04,3.999999999996793321e+01,3.999999999987171861e+01,-1.799998443035014191e+02,-1.799996886070031508e+02
5.649369748123022146e+04,3.999999999996908429e+01,3.999999999987635846e+01,-1.799998471452828142e+02,-1.799996942905658557e+02
5.754399373371566617e+04,3.999999999997020694e+01,3.999999999988082777e+01,-1.799998499351958117e+02,-1.799996998703918791e+02
5.861381645140284672e+04,3.999999999997128697e+01,3.999999999988514787e+01,-1.799998526741871672e+02,-1.799997053483746186e+02
5.970352865838364960e+04,3.999999999997231726e+01,3.999999999988929744e+01,-1.799998553631862706e+02,-1.799997107263728537e+02
6.081350012787176092e+04,3.999999999997332623e+01,3.999999999989330490e+01,-1.799998580031056576e+02,-1.799997160062115995e+02
6.194410750767811260e+04,3.999999999997429256e+01,3.999999999989716315e+01,-1.799998605948410670e+02,-1.799997211896824183e+02
6.309573444801929872e+04,3.999999999997521627e+01,3.999999999990088639e+01,-1.799998631392719517e+02,-1.799997262785442160e+02
6.426877173170194146e+04,3.999999999997611155e+01,3.999999999990446753e+01,-1.799998656372617631e+02,-1.799997312745238389e+02
6.546361740672746964e+04,3.999999999997697842e+01,3.999999999990792077e+01,-1.799998680896581220e+02,-1.799997361793165283e+02
6.668067692136218830e+04,3.999999999997781686e+01,3.999999999991125321e+01,-1.799998704972932160e+02,-1.799997409945866593e+02
6.792036326171843393e+04,3.999999999997861266e+01,3.999999999991446487e+01,-1.799998728609839986e+02,-1.799997457219682246e+02
6.918309709189362184e+04,3.999999999997938716e+01,3.999999999991755573e+01,-1.799998751815325306e+02,-1.799997503630653739e+02
7.046930689671466826e+04,3.999999999998013323e+01,3.999999999992054001e+01,-1.799998774597263207e+02,-1.799997549194529540e+02
7.177942912713615806e+04,3.999999999998085087e+01,3.999999999992341060e+01,-1.799998796963383825e+02,-1.799997593926770776e+02
7.311390834834171983e+04,3.999999999998154010e+01,3.999999999992618172e+01,-1.799998818921276609e+02,-1.799997637842556344e+02
7.447319739059888525e+04,3.999999999998220801e+01,3.999999999992884625e+01,-1.799998840478392879e+02,-1.799997680956788599e+02
7.585775750291836448e+04,3.999999999998286171e+01,3.999999999993142552e+01,-1.799998861642047530e+02,-1.799997723284097333e+02
7.726805850957021175e+04,3.999999999998347278e+01,3.999999999993390531e+01,-1.799998882419421591e+02,-1.799997764838845740e+02
7.870457896950985014e+04,3.999999999998407674e+01,3.999999999993629274e+01,-1.799998902817565920e+02,-1.799997805635134682e+02
8.016780633876789943e+04,3.999999999998464517e+01,3.999999999993860200e+01,-1.799998922843402056e+02,-1.799997845686807523e+02
8.165823713585922087e+04,3.999999999998520650e+01,3.999999999994081890e+01,-1.799998942503725914e+02,-1.799997885007454386e+02
8.317637711026708712e+04,3.999999999998573941e+01,3.999999999994295763e+01,-1.799998961805208069e+02,-1.799997923610418979e+02
8.472274141405963746e+04,3.999999999998625810e+01,3.999999999994503241e+01,-1.799998980754398588e+02,-1.799997961508799733e+02
8.629785477669702959e+04,3.999999999998675548e+01,3.999999999994701483e+01,-1.799998999357727314e+02,-1.799997998715457754e+02
8.790225168308842694e+04,3.999999999998723155e+01,3.999999999994892619e+01,-1.799999017621506994e+02,-1.799998035243017398e+02
8.953647655495937215e+04,3.999999999998769340e+01,3.999999999995077360e+01,-1.799999035551935265e+02,-1.799998071103873656e+02
9.120108393559097021e+04,3.999999999998814104e+01,3.999999999995255706e+01,-1.799999053155096362e+02,-1.799998106310195567e+02
9.289663867799362924e+04,3.999999999998856737e+01,3.999999999995427657e+01,-1.799999070436963677e+02,-1.799998140873929628e+02
9.462371613657929993e+04,3.999999999998897948e+01,3.999999999995593214e+01,-1.799999087403400893e+02,-1.799998174806804911e+02
9.638290236239705700e+04,3.999999999998938449e+01,3.999999999995752376e+01,-1.799999104060165962e+02,-1.799998208120335335e+02
9.817479430199843773e+04,3.999999999998976818e+01,3.999999999995905853e+01,-1.799999120412911111e+02,-1.799998240825824780e+02
1.000000000000000000e+05,3.999999999999013767e+01,3.999999999996054356e+01,-1.799999136467184826e+02,-1.799998272934372210e+02
1.018591388054116978e+05,3.999999999999049294e+01,3.999999999996197175e+01,-1.799999152228434696e+02,-1.799998304456872518e+02
1.037528415818012581e+05,3.999999999999083400e+01,3.999999999996334310e+01,-1.799999167702009686e+02,-1.799998335404022214e+02
1.056817509213658486e+05,3.999999999999116795e+01,3.999999999996467182e+01,-1.799999182893160139e+02,-1.799998365786323120e+02
1.076465213629834907e+05,3.999999999999148770e+01,3.999999999996595079e+01,-1.799999197807040900e+02,-1.799998395614084075e+02
1.096478196143185050e+05,3.999999999999179323e+01,3.999999999996718003e+01,-1.799999212448712171e+02,-1.799998424897427753e+02
1.116863247780561214e+05,3.999999999999209166e+01,3.999999999996836664e+01,-1.799999226823143204e+02,-1.799998453646289249e+02
1.137627285823431012e+05,3.999999999999238298e+01,3.999999999996951061e+01,-1.799999240935211446e+02,-1.799998481870425167e+02
1.158777356155126181e+05,3.999999999999265299e+01,3.999999999997061195e+01,-1.799999254789705105e+02,-1.799998509579413053e+02
1.180320635651729972e+05,3.999999999999291589e+01,3.999999999997167777e+01,-1.799999268391325700e+02,-1.799998536782654526e+02
1.202264434617413208e+05,3.999999999999317168e+01,3.999999999997270095e+01,-1.799999281744689199e+02,-1.799998563489380956e+02
1.224616199265048926e+05,3.999999999999342037e+01,3.999999999997368860e+01,-1.799999294854326024e+02,-1.799998589708654890e+02
1.247383514242943202e+05,3.999999999999366196e+01,3.999999999997464073e+01,-1.799999307724685025e+02,-1.799998615449372323e+02
1.270574105208542023e+05,3.999999999999388933e+01,3.999999999997555733e+01,-1.799999320360133197e+02,-1.799998640720269520e+02
1.294195841449986328e+05,3.999999999999410960e+01,3.999999999997643840e+01,-1.799999332764958808e+02,-1.799998665529920743e+02
1.318256738556407508e+05,3.999999999999432276e+01,3.999999999997729105e+01,-1.799999344943370829e+02,-1.799998689886745069e+02
1.342764961137864157e+05,3.999999999999452882e+01,3.999999999997811528e+01,-1.799999356899502061e+02,-1.799998713799006396e+02
1.367728825595849485e+05,3.999999999999472777e+01,3.999999999997890399e+01,-1.799999368637408566e+02,-1.799998737274820542e+02
1.393156802945303498e+05,3.999999999999491251e+01,3.999999999997967137e+01,-1.799999380161074782e+02,-1.799998760322152123e+02
1.419057521689092682e+05,3.999999999999510436e+01,3.999999999998040323e+01,-1.799999391474410118e+02,-1.799998782948823361e+02
1.445439770745928108e+05,3.999999999999528200e+01,3.999999999998111377e+01,-1.799999402581253776e+02,-1.799998805162510678e+02
1.472312502432719339e+05,3.999999999999544542e+01,3.999999999998179590e+01,-1.799999413485375044e+02,-1.799998826970752361e+02
1.499684835502374044e+05,3.999999999999560885e+01,3.999999999998245670e+01,-1.799999424190473007e+02,-1.799998848380949426e+02
1.527566058238073310e+05,3.999999999999577227e+01,3.999999999998309619e+01,-1.799999434700181382e+02,-1.799998869400366175e+02
1.555965631605075032e+05,3.999999999999592148e+01,3.999999999998370015e+01,-1.799999445018065956e+02,-1.799998890036135037e+02
1.584893192461114086e+05,3.999999999999607780e+01,3.999999999998428990e+01,-1.799999455147627998e+02,-1.799998910295258838e+02
1.614358556826486893e+05,3.999999999999621281e+01,3.999999999998485833e+01,-1.799999465092304263e+02,-1.799998930184611652e+02
1.644371723214932426e+05,3.999999999999634781e+01,3.999999999998540545e+01,-1.799999474855470112e+02,-1.799998949710943350e+02
1.674942876026437734e+05,3.999999999999648281e+01,3.999999999998593836e+01,-1.799999484440438096e+02,-1.799998968880879033e+02
1.706082389003123972e+05,3.999999999999661071e+01,3.999999999998644284e+01,-1.799999493850460510e+02,-1.799998987700923863e+02
1.737800828749376233e+05,3.999999999999673150e+01,3.999999999998693312e+01,-1.799999503088730819e+02,-1.799999006177464196e+02
1.770108958317422075e+05,3.999999999999685230e+01,3.999999999998740918e+01,-1.799999512158383652e+02,-1.799999024316770146e+02
1.803017740859570040e+05,3.999999999999696598e+01,3.999999999998786393e+01,-1.799999521062496513e+02,-1.799999042124996151e+02
1.836538343348347407e+05,3.999999999999707256e+01,3.999999999998830447e+01,-1.799999529804091196e+02,-1.799999059608184950e+02
1.870682140365801461e+05,3.999999999999717915e+01,3.999999999998872369e+01,-1.799999538386133509e+02,-1.799999076772270143e+02
1.905460717963248317e+05,3.999999999999728573e+01,3.999999999998913580e+01,-1.799999546811536106e+02,-1.799999093623075339e+02
1.940885877592779580e+05,3.999999999999737810e+01,3.999999999998952660e+01,-1.799999555083157929e+02,-1.799999110166318985e+02
1.976969640111862100e+05,3.999999999999747047e+01,3.999999999998990319e+01,-1.799999563203805621e+02,-1.799999126407613801e+02
2.013724249862389406e+05,3.999999999999756994e+01,3.999999999999027267e+01,-1.799999571176234667e+02,-1.799999142352471608e+02
2.051162178825566662e+05,3.999999999999765521e+01,3.999999999999062084e+01,-1.799999579003150529e+02,-1.799999158006303333e+02
2.089296130854040966e+05,3.999999999999774047e+01,3.999999999999096190e+01,-1.799999586687208648e+02,-1.799999173374420423e+02
2.128139045982713578e+05,3.999999999999781863e+01,3.999999999999128875e+01,-1.799999594231017568e+02,-1.799999188462037409e+02
2.167704104819696222e+05,3.999999999999789679e+01,3.999999999999160138e+01,-1.799999601637136095e+02,-1.799999203274274464e+02
2.208004733018901316e+05,3.999999999999797495e+01,3.999999999999190692e+01,-1.799999608908077562e+02,-1.799999217816158250e+02
2.249054605835783004e+05,3.999999999999805311e+01,3.999999999999219824e+01,-1.799999616046309825e+02,-1.799999232092622492e+02
2.290867652767774707e+05,3.999999999999812417e+01,3.999999999999248246e+01,-1.799999623054254414e+02,-1.799999246108511670e+02
2.333458062281004386e+05,3.999999999999818812e+01,3.999999999999275246e+01,-1.799999629934289658e+02,-1.799999259868582158e+02
2.376840286624878354e+05,3.999999999999825206e+01,3.999999999999301536e+01,-1.799999636688750115e+02,-1.799999273377502789e+02
2.421029046736179735e+05,3.999999999999831601e+01,3.999999999999326405e+01,-1.799999643319927713e+02,-1.799999286639857985e+02
2.466039337234341074e+05,3.999999999999837996e+01,3.999999999999351274e+01,-1.799999649830072599e+02,-1.799999299660148040e+02
2.511886431509582035e+05,3.999999999999843681e+01,3.999999999999374722e+01,-1.799999656221393991e+02,-1.799999312442791108e+02
2.558585886905647931e+05,3.999999999999849365e+01,3.999999999999397460e+01,-1.799999662496060751e+02,-1.799999324992124627e+02
2.606153549998897652e+05,3.999999999999855049e+01,3.999999999999418776e+01,-1.799999668656201948e+02,-1.799999337312406738e+02
2.654605561975541641e+05,3.999999999999860023e+01,3.999999999999440092e+01,-1.799999674703907715e+02,-1.799999349407818556e+02
2.703958364108846290e+05,3.999999999999864997e+01,3.999999999999460698e+01,-1.799999680641230668e+02,-1.799999361282464179e+02
2.754228703338169144e+05,3.999999999999869971e+01,3.999999999999479883e+01,-1.799999686470185054e+02,-1.799999372940373235e+02
2.805433637951716082e+05,3.999999999999874944e+01,3.999999999999498357e+01,-1.799999692192749023e+02,-1.799999384385501173e+02
2.857590543374949484e+05,3.999999999999879208e+01,3.999999999999516831e+01,-1.799999697810864632e+02,-1.799999395621732106e+02
2.910717118066608091e+05,3.999999999999883471e+01,3.999999999999533884e+01,-1.799999703326437839e+02,-1.799999406652878804e+02
2.964831389524345286e+05,3.999999999999887734e+01,3.999999999999550937e+01,-1.799999708741340498e+02,-1.799999417482684407e+02
3.019951720402018982e+05,3.999999999999891998e+01,3.999999999999567279e+01,-1.799999714057410358e+02,-1.799999428114823559e+02
