wout,mag_flicker_0,mag_flicker_1,phase_flicker_0,phase_flicker_1
1.000000000000000021e-02,1.659987102426077143e+01,1.086848259029719443e+01,-2.822832396031546409e+02,-2.885175930292101043e+02
1.018591388054116906e-02,1.675573360110215049e+01,1.101543687321748166e+01,-2.822008879191355959e+02,-2.882658874158746585e+02
1.037528415818012723e-02,1.691169075685703760e+01,1.116281365477492216e+01,-2.821225035579053042e+02,-2.880192529649947346e+02
1.056817509213658565e-02,1.706773729135836959e+01,1.131059953525744532e+01,-2.820480672585399589e+02,-2.877776608789432089e+02
1.076465213629834890e-02,1.722386810788110978e+01,1.145878143104868307e+01,-2.819775606241295236e+02,-2.875410815491354128e+02
1.096478196143185063e-02,1.738007820759775868e+01,1.160734657139389903e+01,-2.819109661340845605e+02,-2.873094846464849752e+02
1.116863247780561230e-02,1.753636268408613219e+01,1.175628249478831755e+01,-2.818482671555605634e+02,-2.870828392087063889e+02
1.137627285823430978e-02,1.769271671788804312e+01,1.190557704501975067e+01,-2.817894479540413499e+02,-2.868611137244795373e+02
1.158777356155126122e-02,1.784913557111726590e+01,1.205521836689612059e+01,-2.817344937031190284e+02,-2.866442762144946528e+02
1.180320635651730017e-02,1.800561458211488741e+01,1.220519490168691590e+01,-2.816833904935052715e+02,-2.864322943094113612e+02
1.202264434617413176e-02,1.816214916015006864e+01,1.235549538230627320e+01,-2.816361253413075474e+02,-2.862251353247671091e+02
1.224616199265048978e-02,1.831873478016389356e+01,1.250610882826395809e+01,-2.815926861956021412e+02,-2.860227663328822700e+02
1.247383514242943192e-02,1.847536697755397483e+01,1.265702454040898317e+01,-2.815530619453309669e+02,-2.858251542318124621e+02
1.270574105208541887e-02,1.863204134299716941e+01,1.280823209548937847e+01,-2.815172424255505916e+02,-2.856322658114042383e+02
1.294195841449986319e-02,1.878875351730773602e+01,1.295972134055002556e+01,-2.814852184230565513e+02,-2.854440678165157124e+02
1.318256738556407466e-02,1.894549918632808527e+01,1.311148238718935488e+01,-2.814569816814053524e+02,-2.852605270074676014e+02
1.342764961137864199e-02,1.910227407584918069e+01,1.326350560569417070e+01,-2.814325249053552511e+02,-2.850816102177924449e+02
1.367728825595849670e-02,1.925907394655751759e+01,1.341578161907077771e+01,-2.814118417647419506e+02,-2.849072844093537924e+02
1.393156802945303557e-02,1.941589458900553922e+01,1.356830129698913190e+01,-2.813949268978059308e+02,-2.847375167249080050e+02
1.419057521689091883e-02,1.957273181860232469e+01,1.372105574965574171e+01,-2.813817759139852797e+02,-2.845722745381850700e+02
1.445439770745927249e-02,1.972958147062124112e+01,1.387403632162973288e+01,-2.813723853961848249e+02,-2.844115255015630623e+02
1.472312502432718793e-02,1.988643939522115289e+01,1.402723458559537661e+01,-2.813667529025310614e+02,-2.842552375914150389e+02
1.499684835502373276e-02,2.004330145247798711e+01,1.418064233610349234e+01,-2.813648769676208872e+02,-2.841033791512047628e+02
1.527566058238072171e-02,2.020016350742309186e+01,1.433425158329278482e+01,-2.813667571032680712e+02,-2.839559189324095883e+02
1.555965631605074270e-02,2.035702142508502277e+01,1.448805454660151426e+01,-2.813723937987518298e+02,-2.838128261333473574e+02
1.584893192461113431e-02,2.051387106553141138e+01,1.464204364847870643e+01,-2.813817885205680227e+02,-2.836740704359856409e+02
1.614358556826486074e-02,2.067070827890723805e+01,1.479621150810342556e+01,-2.813949437116815488e+02,-2.835396220408073304e+02
1.644371723214931372e-02,2.082752890046643302e+01,1.495055093511957622e+01,-2.814118627902772687e+02,-2.834094516998099493e+02
1.674942876026437252e-02,2.098432874559307137e+01,1.510505492339308020e+01,-2.814325501480047365e+02,-2.832835307477109268e+02
1.706082389003123548e-02,2.114110360480900042e+01,1.525971664479734535e+01,-2.814570111477080445e+02,-2.831618311314326775e+02
1.737800828749375484e-02,2.129784923876450620e+01,1.541452944303243378e+01,-2.814852521206327651e+02,-2.830443254379380846e+02
1.770108958317421002e-02,2.145456137320869061e+01,1.556948682748231327e+01,-2.815172803630979388e+02,-2.829309869204855090e+02
1.803017740859568993e-02,2.161123569393645738e+01,1.572458246711437191e+01,-2.815531041326196942e+02,-2.828217895233709669e+02
1.836538343348346342e-02,2.176786784170885625e+01,1.587981018442438064e+01,-2.815927326434695601e+02,-2.827167079052240979e+02
1.870682140365800480e-02,2.192445340714379398e+01,1.603516394942973022e+01,-2.816361760616525771e+02,-2.826157174609202798e+02
1.905460717963247327e-02,2.208098792557417767e+01,1.619063787371321084e+01,-2.816834454992813903e+02,-2.825187943421713044e+02
1.940885877592778141e-02,2.223746687187055571e+01,1.634622620451900943e+01,-2.817345530083272251e+02,-2.824259154768537883e+02
1.976969640111861035e-02,2.239388565522571639e+01,1.650192331890230690e+01,-2.817895115737218248e+02,-2.823370585871335265e+02
2.013724249862388488e-02,2.255023961389846221e+01,1.665772371793316964e+01,-2.818483351057839741e+02,-2.822522022064392786e+02
2.051162178825565591e-02,2.270652400991433240e+01,1.681362202095531444e+01,-2.819110384319423588e+02,-2.821713256953406130e+02
2.089296130854039965e-02,2.286273402372090757e+01,1.696961295989969187e+01,-2.819776372877233257e+02,-2.820944092563794925e+02
2.128139045982712155e-02,2.301886474879571409e+01,1.712569137365261085e+01,-2.820481483069702335e+02,-2.820214339479037449e+02
2.167704104819695443e-02,2.317491118620484158e+01,1.728185220247783960e+01,-2.821225890112592651e+02,-2.819523816969496011e+02
2.208004733018900309e-02,2.333086823911065721e+01,1.743809048249165627e+01,-2.822009777984737298e+02,-2.818872353112154769e+02
2.249054605835780485e-02,2.348673070722731637e+01,1.759440134018970525e+01,-2.822833339304964397e+02,-2.818259784901703142e+02
2.290867652767772725e-02,2.364249328122278371e+01,1.775077998702419535e+01,-2.823696775199786657e+02,-2.817685958353339970e+02
2.333458062281001943e-02,2.379815053706677119e+01,1.790722171402963170e+01,-2.824600295161403665e+02,-2.817150728597679858e+02
2.376840286624876120e-02,2.395369693032388980e+01,1.806372188649532617e+01,-2.825544116895547972e+02,-2.816653959968097070e+02
2.421029046736177665e-02,2.410912679039195794e+01,1.822027593868239848e+01,-2.826528466158683841e+02,-2.816195526080849163e+02
2.466039337234338796e-02,2.426443431468562295e+01,1.837687936858307225e+01,-2.827553576584053872e+02,-2.815775309908253803e+02
2.511886431509579784e-02,2.441961356276585704e+01,1.853352773271968701e+01,-2.828619689496010778e+02,-2.815393203845232506e+02
2.558585886905645132e-02,2.457465845041634012e+01,1.869021664098096736e+01,-2.829727053712106226e+02,-2.815049109769448137e+02
2.606153549998894980e-02,2.472956274366820395e+01,1.884694175149255457e+01,-2.830875925332331917e+02,-2.814742939095289103e+02
2.654605561975538486e-02,2.488432005277500281e+01,1.900369876551914317e+01,-2.832066567514917210e+02,-2.814474612821911137e+02
2.703958364108843479e-02,2.503892382614037615e+01,1.916048342239511371e+01,-2.833299250238063678e+02,-2.814244061575522551e+02
2.754228703338166065e-02,2.519336734420140544e+01,1.931729149448056404e+01,-2.834574250046964607e+02,-2.814051225646092576e+02
2.805433637951713216e-02,2.534764371327124621e+01,1.947411878213965508e+01,-2.835891849785449494e+02,-2.813896055018626043e+02
2.857590543374946557e-02,2.550174585934508187e+01,1.963096110873796363e+01,-2.837252338311571407e+02,-2.813778509399131167e+02
2.910717118066605269e-02,2.565566652187447971e+01,1.978781431565555238e+01,-2.838656010196431225e+02,-2.813698558235395240e+02
2.964831389524342359e-02,2.580939824751546396e+01,1.994467425731244958e+01,-2.840103165405533332e+02,-2.813656180732646703e+02
3.019951720402016052e-02,2.596293338385670424e+01,2.010153679620309930e+01,-2.841594108961929237e+02,-2.813651365864171225e+02
3.076096814740707924e-02,2.611626407313485743e+01,2.025839779793642137e+01,-2.843129150590408472e+02,-2.813684112376929534e+02
3.133285724315585524e-02,2.626938224594492866e+01,2.041525312627802435e+01,-2.844708604341989258e+02,-2.813754428792190652e+02
3.191537855100761573e-02,2.642227961495436972e+01,2.057209863819110396e+01,-2.846332788197930199e+02,-2.813862333401198725e+02
3.250872973854343484e-02,2.657494766863070623e+01,2.072893017887269451e+01,-2.848002023652505272e+02,-2.814007854255838197e+02
3.311311214825911342e-02,2.672737766499308520e+01,2.088574357678177762e+01,-2.849716635273747443e+02,-2.814191029154273451e+02
3.372873086588688840e-02,2.687956062539957358e+01,2.104253463865579477e+01,-2.851476950241412851e+02,-2.814411905621490746e+02
3.435579478998746633e-02,2.703148732838275592e+01,2.119929914451243746e+01,-2.853283297861356118e+02,-2.814670540884668526e+02
3.499451670283573040e-02,2.718314830354740508e+01,2.135603284263308410e+01,-2.855136009055579507e+02,-2.814967001843278354e+02
3.564511334262442793e-02,2.733453382554515798e+01,2.151273144452494179e+01,-2.857035415827176621e+02,-2.815301365033780030e+02
3.630780547701013827e-02,2.748563390814219787e+01,2.166939061985842585e+01,-2.858981850699428264e+02,-2.815673716588784714e+02
3.698281797802662613e-02,2.763643829839729094e+01,2.182600599137690978e+01,-2.860975646128338212e+02,-2.816084152190503573e+02
3.767037989839089329e-02,2.778693647096868702e+01,2.198257312977566613e+01,-2.863017133887880163e+02,-2.816532777018307456e+02
3.837072454922788034e-02,2.793711762256980791e+01,2.213908754854713834e+01,-2.865106644427317519e+02,-2.817019705690189539e+02
3.908408957924021376e-02,2.808697066659479447e+01,2.229554469878981138e+01,-2.867244506199921261e+02,-2.817545062197886523e+02
3.981071705534973415e-02,2.823648422793652912e+01,2.245193996397789249e+01,-2.869431044962519195e+02,-2.818108979835429295e+02
4.055085354483839444e-02,2.838564663802109322e+01,2.260826865468940738e+01,-2.871666583045320635e+02,-2.818711601120825208e+02
4.130475019901614503e-02,2.853444593008388352e+01,2.276452600329031384e+01,-2.873951438591514602e+02,-2.819353077710601383e+02
4.207266283844442178e-02,2.868286983471432450e+01,2.292070715857241936e+01,-2.876285924766236235e+02,-2.820033570306862885e+02
4.285485203974396390e-02,2.883090577569720736e+01,2.307680718034320222e+01,-2.878670348934526260e+02,-2.820753248556550261e+02
4.365158322401661156e-02,2.897854086618041691e+01,2.323282103396573817e+01,-2.881105011808028280e+02,-2.821512290942516756e+02
4.446312674691089289e-02,2.912576190520006136e+01,2.338874358484711991e+01,-2.883590206560222100e+02,-2.822310884666045467e+02
4.528975799036209088e-02,2.927255537459546986e+01,2.354456959287425377e+01,-2.886126217910126570e+02,-2.823149225520396612e+02
4.613175745603794592e-02,2.941890743634794347e+01,2.370029370679589675e+01,-2.888713321174490716e+02,-2.824027517754952896e+02
4.698941086052155908e-02,2.956480393037844578e+01,2.385591045855029790e+01,-2.891351781288612415e+02,-2.824945973929507090e+02
4.786300923226385201e-02,2.971023037284068025e+01,2.401141425753795033e+01,-2.894041851796081346e+02,-2.825904814758214911e+02
4.875284901033865442e-02,2.985517195494740150e+01,2.416679938483958878e+01,-2.896783773807842408e+02,-2.826904268942715248e+02
4.965923214503362854e-02,2.999961354236862121e+01,2.432205998737963171e+01,-2.899577774931174758e+02,-2.827944572993887959e+02
5.058246620031139895e-02,3.014353967524180433e+01,2.447719007203579267e+01,-2.902424068169308953e+02,-2.829025971041712637e+02
5.152286445817564481e-02,3.028693456883482682e+01,2.463218349969614707e+01,-2.905322850792601912e+02,-2.830148714632652514e+02
5.248074602497725810e-02,3.042978211490320462e+01,2.478703397926506113e+01,-2.908274303182373615e+02,-2.831313062513976888e+02
5.345643593969716389e-02,3.057206588378418743e+01,2.494173506162038123e+01,-2.911278587648704388e+02,-2.832519280404412712e+02
5.445026528424212059e-02,3.071376912727016162e+01,2.509628013352421050e+01,-2.914335847223713358e+02,-2.833767640750492660e+02
5.546257129579107437e-02,3.085487478230460567e+01,2.525066241149072255e+01,-2.917446204432039281e+02,-2.835058422467942592e+02
5.649369748123025253e-02,3.099536547554370713e+01,2.540487493561463594e+01,-2.920609760040505307e+02,-2.836391910667450702e+02
5.754399373371569398e-02,3.113522352882649358e+01,2.555891056336485434e+01,-2.923826591789176064e+02,-2.837768396364107844e+02
5.861381645140287255e-02,3.127443096559611746e+01,2.571276196334838460e+01,-2.927096753106259257e+02,-2.839188176169836311e+02
5.970352865838369355e-02,3.141296951831404272e+01,2.586642160905021370e+01,-2.930420271809591100e+02,-2.840651551968066428e+02
6.081350012787179599e-02,3.155082063690795025e+01,2.601988177255591239e+01,-2.933797148797683576e+02,-2.842158830569933912e+02
6.194410750767814777e-02,3.168796549829283293e+01,2.617313451826413484e+01,-2.937227356733604893e+02,-2.843710323351246529e+02
6.309573444801933051e-02,3.182438501700303135e+01,2.632617169659729228e+01,-2.940710838725237295e+02,-2.845306345869458369e+02
6.426877173170197910e-02,3.196005985697084029e+01,2.647898493771953810e+01,-2.944247507005730995e+02,-2.846947217459889998e+02
6.546361740672750062e-02,3.209497044448504965e+01,2.663156564527191250e+01,-2.947837241618269672e+02,-2.848633260810414640e+02
6.668067692136221691e-02,3.222909698235964981e+01,2.678390499013581305e+01,-2.951479889109531314e+02,-2.850364801513836142e+02
6.792036326171846383e-02,3.236241946533975522e+01,2.693599390423668893e+01,-2.955175261236507822e+02,-2.852142167597185107e+02
6.918309709189363055e-02,3.249491769676830444e+01,2.708782307440096560e+01,-2.958923133691631051e+02,-2.853965689027151029e+02
7.046930689671467019e-02,3.262657130653227711e+01,2.723938293628057394e+01,-2.962723244851398476e+02,-2.855835697190904057e+02
7.177942912713615453e-02,3.275735977030331014e+01,2.739066366836013700e+01,-2.966575294553957747e+02,-2.857752524351521970e+02
7.311390834834172181e-02,3.288726243008185435e+01,2.754165518606360408e+01,-2.970478942911340710e+02,-2.859716503077313519e+02
7.447319739059889143e-02,3.301625851604875805e+01,2.769234713597786168e+01,-2.974433809162253510e+02,-2.861727965644302571e+02
7.585775750291835762e-02,3.314432716972212489e+01,2.784272889021249142e+01,-2.978439470571540824e+02,-2.863787243411185841e+02
7.726805850957021993e-02,3.327144746841062783e+01,2.799278954091597882e+01,-2.982495461382596318e+02,-2.865894666166101956e+02
7.870457896950984467e-02,3.339759845094793178e+01,2.814251789496999479e+01,-2.986601271829156872e+02,-2.868050561444591722e+02
8.016780633876789686e-02,3.352275914468513207e+01,2.829190246888492766e+01,-2.990756347213016966e+02,-2.870255253818172037e+02
8.165823713585922128e-02,3.364690859371083320e+01,2.844093148392100900e+01,-2.994960087054280962e+02,-2.872509064152990277e+02
8.317637711026708291e-02,3.377002588826027818e+01,2.858959286146093959e+01,-2.999211844320824980e+02,-2.874812308838102695e+02
8.472274141405965187e-02,3.389209019526666822e+01,2.873787421866137137e+01,-3.003510924743602004e+02,-2.877165298982958461e+02
8.629785477669701943e-02,3.401308078999933571e+01,2.888576286441186625e+01,-3.007856586224417015e+02,-2.879568339583789793e+02
8.790225168308841985e-02,3.413297708872458003e+01,2.903324579563161834e+01,-3.012248038342676182e+02,-2.882021728658634174e+02
8.953647655495937385e-02,3.425175868231622189e+01,2.918030969393546670e+01,-3.016684441967461225e+02,-2.884525756350875554e+02
9.120108393559096804e-02,3.436940537073402879e+01,2.932694092270216402e+01,-3.021164908981101576e+02,-2.887080704001232903e+02
9.289663867799362318e-02,3.448589719827907629e+01,2.947312552457935197e+01,-3.025688502120135581e+02,-2.889686843188283660e+02
9.462371613657930003e-02,3.460121448952668999e+01,2.961884921946082727e+01,-3.030254234939247340e+02,-2.892344434737702841e+02
9.638290236239706321e-02,3.471533788582861746e+01,2.976409740297311401e+01,-3.034861071903388847e+02,-2.895053727700562831e+02
9.817479430199843593e-02,3.482824838226807174e+01,2.990885514550951996e+01,-3.039507928612878231e+02,-2.897814958301152046e+02
1.000000000000000056e-01,3.493992736494328000e+01,3.005310719185080970e+01,-3.044193672165744715e+02,-2.900628348854953629e+02
1.018591388054116975e-01,3.505035664844751864e+01,3.019683796141293186e+01,-3.048917121661081637e+02,-2.903494106657591942e+02
1.037528415818012584e-01,3.515951851340721390e+01,3.034003154916281630e+01,-3.053677048846539037e+02,-2.906412422845717742e+02
1.056817509213658496e-01,3.526739574393283760e+01,3.048267172724425578e+01,-3.058472178912439858e+02,-2.909383471231013232e+02
1.076465213629834994e-01,3.537397166483253130e+01,3.062474194735622035e+01,-3.063301191434309771e+02,-2.912407407108701136e+02
1.096478196143185202e-01,3.547923017843325511e+01,3.076622534392667419e+01,-3.068162721464836977e+02,-2.915484366042140891e+02
1.116863247780561230e-01,3.558315580085111662e+01,3.090710473812483983e+01,-3.073055360775518920e+02,-2.918614462625342867e+02
1.137627285823430978e-01,3.568573369754946611e+01,3.104736264275511815e+01,-3.077977659247392808e+02,-2.921797789225453243e+02
1.158777356155126226e-01,3.578694971802220692e+01,3.118698126807538884e+01,-3.082928126409421452e+02,-2.925034414707508859e+02
1.180320635651729844e-01,3.588679042943917352e+01,3.132594252858210382e+01,-3.087905233122206710e+02,-2.928324383144031344e+02
1.202264434617413141e-01,3.598524314909144550e+01,3.146422805080352347e+01,-3.092907413403835335e+02,-2.931667712512268054e+02
1.224616199265049082e-01,3.608229597547654066e+01,3.160181918214154706e+01,-3.097933066393737249e+02,-2.935064393382187404e+02
1.247383514242943192e-01,3.617793781786670593e+01,3.173869700080089018e+01,-3.102980558449569344e+02,-2.938514387598584676e+02
1.270574105208542026e-01,3.627215842420857683e+01,3.187484232684280272e+01,-3.108048225371238118e+02,-2.942017626960947609e+02
1.294195841449986284e-01,3.636494840720789767e+01,3.201023573439795911e+01,-3.113134374745313835e+02,-2.945574011905024463e+02
1.318256738556407293e-01,3.645629926846081048e+01,3.214485756507088610e+01,-3.118237288402261811e+02,-2.949183410190281620e+02
1.342764961137864199e-01,3.654620342050135662e+01,3.227868794256507101e+01,-3.123355224978118940e+02,-2.952845655597769223e+02
1.367728825595849462e-01,3.663465420664450534e+01,3.241170678855436194e+01,-3.128486422571486969e+02,-2.956560546643148086e+02
1.393156802945303419e-01,3.672164591851505122e+01,3.254389383982274353e+01,-3.133629101486037598e+02,-2.960327845309914210e+02
1.419057521689092716e-01,3.680717381116411957e+01,3.267522866668969073e+01,-3.138781467048082732e+02,-2.964147275808131212e+02
1.445439770745927111e-01,3.689123411568809274e+01,3.280569069273385452e+01,-3.143941712488210669e+02,-2.968018523364196426e+02
1.472312502432718551e-01,3.697382404927822108e+01,3.293525921582252636e+01,-3.149108021875510417e+02,-2.971941233047435844e+02
1.499684835502373137e-01,3.705494182264317971e+01,3.306391343044835907e+01,-3.154278573092504416e+02,-2.975915008639495909e+02
1.527566058238072344e-01,3.713458664476202387e+01,3.319163245136892471e+01,-3.159451540838609844e+02,-2.979939411552722390e+02
1.555965631605074340e-01,3.721275872493996673e+01,3.331839533853784019e+01,-3.164625099649720141e+02,-2.984013959803863258e+02
1.584893192461113431e-01,3.728945927215478662e+01,3.344418112330928494e+01,-3.169797426921390979e+02,-2.988138127049562627e+02
1.614358556826486213e-01,3.736469049169767231e+01,3.356896883589018188e+01,-3.174966705923072254e+02,-2.992311341690231643e+02
1.644371723214931580e-01,3.743845557912741384e+01,3.369273753400668170e+01,-3.180131128790915795e+02,-2.996532986048933367e+02
1.674942876026437322e-01,3.751075871157256358e+01,3.381546633274322033e+01,-3.185288899486839682e+02,-3.000802395631929471e+02
1.706082389003123478e-01,3.758160503643114225e+01,3.393713443550424813e+01,-3.190438236711798368e+02,-3.005118858477555932e+02
1.737800828749375415e-01,3.765100065753183856e+01,3.405772116604005362e+01,-3.195577376761551136e+02,-3.009481614599988575e+02
1.770108958317421211e-01,3.771895261883491912e+01,3.417720600146915899e+01,-3.200704576313669349e+02,-3.013889855534355888e+02
1.803017740859569062e-01,3.778546888576398999e+01,3.429556860622111003e+01,-3.205818115135019752e+02,-3.018342723989508158e+02
1.836538343348346480e-01,3.785055832427208600e+01,3.441278886681439531e+01,-3.210916298699577283e+02,-3.022839313614491061e+02
1.870682140365800550e-01,3.791423067775701128e+01,3.452884692737545436e+01,-3.215997460707052369e+02,-3.027378668884533113e+02
1.905460717963247397e-01,3.797649654195106450e+01,3.464372322579603747e+01,-3.221059965493562345e+02,-3.031959785111981205e+02
1.940885877592778419e-01,3.803736733791927804e+01,3.475739853041747551e+01,-3.226102210326334330e+02,-3.036581608587262053e+02
1.976969640111860826e-01,3.809685528330848570e+01,3.486985397712268764e+01,-3.231122627575234105e+02,-3.041243036854453408e+02
2.013724249862388627e-01,3.815497336199591416e+01,3.498107110670837017e+01,-3.236119686754784084e+02,-3.045942919125581057e+02
2.051162178825565729e-01,3.821173529229159271e+01,3.509103190240316650e+01,-3.241091896431184978e+02,-3.050680056837142615e+02
2.089296130854039757e-01,3.826715549385281889e+01,3.519971882739061186e+01,-3.246037805989763569e+02,-3.055453204351786667e+02
2.128139045982712363e-01,3.832124905347182420e+01,3.530711486218973505e+01,-3.250956007259149487e+02,-3.060261069807356193e+02
2.167704104819695166e-01,3.837403168989930435e+01,3.541320354174128937e+01,-3.255845135989389405e+02,-3.065102316114815721e+02
2.208004733018900378e-01,3.842551971786670606e+01,3.551796899204310876e+01,-3.260703873182096117e+02,-3.069975562105800577e+02
2.249054605835781873e-01,3.847573001146940186e+01,3.562139596617487314e+01,-3.265530946271576340e+02,-3.074879383829718336e+02
2.290867652767773488e-01,3.852467996707069631e+01,3.572346987955053521e+01,-3.270325130156750788e+02,-3.079812315999517409e+02
2.333458062281003331e-01,3.857238746588365075e+01,3.582417684423527504e+01,-3.275085248084475893e+02,-3.084772853584339600e+02
2.376840286624877230e-01,3.861887083638357154e+01,3.592350370216421140e+01,-3.279810172385638793e+02,-3.089759453546424766e+02
2.421029046736178914e-01,3.866414881669897596e+01,3.602143805710128532e+01,-3.284498825066160634e+02,-3.094770536718719995e+02
2.466039337234340045e-01,3.870824051712318692e+01,3.611796830517937451e+01,-3.289150178255684978e+02,-3.099804489818753837e+02
2.511886431509580686e-01,3.875116538288190782e+01,3.621308366386655564e+01,-3.293763254517393193e+02,-3.104859667593454446e+02
2.558585886905645479e-01,3.879294315728530762e+01,3.630677419920863258e+01,-3.298337127022940649e+02,-3.109934395088698693e+02
2.606153549998895258e-01,3.883359384538519521e+01,3.639903085120440096e+01,-3.302870919597052080e+02,-3.115026970036539637e+02
2.654605561975538763e-01,3.887313767824985433e+01,3.648984545717808459e+01,-3.307363806636748791e+02,-3.120135665352232195e+02
2.703958364108843271e-01,3.891159507796065498e+01,3.657921077302192003e+01,-3.311815012910622613e+02,-3.125258731732392334e+02
2.754228703338166273e-01,3.894898662342584572e+01,3.666712049219228930e+01,-3.316223813243875043e+02,-3.130394400344925998e+02
2.805433637951713077e-01,3.898533301709812093e+01,3.675356926235374999e+01,-3.320589532095169147e+02,-3.135540885600646561e+02
2.857590543374946557e-01,3.902065505267353984e+01,3.683855269957764733e+01,-3.324911543031546444e+02,-3.140696387995940881e+02
2.910717118066605269e-01,3.905497358384064910e+01,3.692206740001476106e+01,-3.329189268107847965e+02,-3.145859097015294310e+02
2.964831389524342220e-01,3.908830949413960099e+01,3.700411094897555131e+01,-3.333422177157209489e+02,-3.151027194082030292e+02
3.019951720402015982e-01,3.912068366798278163e+01,3.708468192736584967e+01,-3.337609786999263406e+02,-3.156198855545272295e+02
3.076096814740708063e-01,3.915211696287945387e+01,3.716377991544084125e+01,-3.341751660572720652e+02,-3.161372255690841371e+02
3.133285724315585385e-01,3.918263018289937349e+01,3.724140549385555232e+01,-3.345847405998970316e+02,-3.166545569763648587e+02
3.191537855100761711e-01,3.921224405340200292e+01,3.731756024200563360e+01,-3.349896675583307228e+02,-3.171716976989010846e+02
3.250872973854344039e-01,3.924097919705061344e+01,3.739224673366764051e+01,-3.353899164760263716e+02,-3.176884663580385677e+02
3.311311214825911065e-01,3.926885611112351171e+01,3.746546852996389276e+01,-3.357854610989434150e+02,-3.182046825721074015e+02
3.372873086588689118e-01,3.929589514612779766e+01,3.753723016969183135e+01,-3.361762792607989354e+02,-3.187201672507673607e+02
3.435579478998746494e-01,3.932211648571485796e+01,3.760753715707311073e+01,-3.365623527645909121e+02,-3.192347428843344801e+02
3.499451670283573179e-01,3.934754012789098709e+01,3.767639594699159034e+01,-3.369436672609751326e+02,-3.197482338269344950e+02
3.564511334262442932e-01,3.937218586751108518e+01,3.774381392780333044e+01,-3.373202121240541373e+02,-3.202604665723733888e+02
3.630780547701014105e-01,3.939607328003864239e+01,3.780979940181455135e+01,-3.376919803251135477e+02,-3.207712700216717963e+02
3.698281797802662751e-01,3.941922170655057300e+01,3.787436156353527394e+01,-3.380589683048123106e+02,-3.212804757412712888e+02
3.767037989839089884e-01,3.944165023996163910e+01,3.793751047582750857e+01,-3.384211758443115059e+02,-3.217879182109880958e+02
3.837072454922788589e-01,3.946337771243961612e+01,3.799925704407667837e+01,-3.387786059357935642e+02,-3.222934350608634304e+02
3.908408957924021099e-01,3.948442268397913324e+01,3.805961298852348307e+01,-3.391312646527995298e+02,-3.227968672961412153e+02
3.981071705534973137e-01,3.950480343209975587e+01,3.811859081490113965e+01,-3.394791610207820440e+02,-3.232980595096817069e+02
4.055085354483839444e-01,3.952453794263104925e+01,3.817620378352876997e+01,-3.398223068882444409e+02,-3.237968600812113209e+02
4.130475019901613809e-01,3.954364390154616871e+01,3.823246587701705579e+01,-3.401607167988069023e+02,-3.242931213628913270e+02
4.207266283844441901e-01,3.956213868780319842e+01,3.828739176674547906e+01,-3.404944078645147556e+02,-3.247866998507822700e+02
4.285485203974396251e-01,3.958003936715303439e+01,3.834099677827295949e+01,-3.408233996406755750e+02,-3.252774563418670368e+02
4.365158322401661573e-01,3.959736268687102978e+01,3.839329685584501561e+01,-3.411477140024859409e+02,-3.257652560763862084e+02
4.446312674691088040e-01,3.961412507136957828e+01,3.844430852615986538e+01,-3.414673750236822798e+02,-3.262499688653285830e+02
4.528975799036208949e-01,3.963034261864820706e+01,3.849404886155522831e+01,-3.417824088574266170e+02,-3.267314692030023480e+02
4.613175745603795286e-01,3.964603109753763022e+01,3.854253544277460719e+01,-3.420928436196129496e+02,-3.272096363646991790e+02
4.698941086052153548e-01,3.966120594569475344e+01,3.858978632146860122e+01,-3.423987092747581187e+02,-3.276843544895401124e+02
4.786300923226382564e-01,3.967588226830540066e+01,3.863581998258251815e+01,-3.427000375246186650e+02,-3.281555126486706513e+02
4.875284901033862806e-01,3.969007483745272680e+01,3.868065530677581876e+01,-3.429968616996550850e+02,-3.286230048990408363e+02
4.965923214503361049e-01,3.970379809210943023e+01,3.872431153301330653e+01,-3.432892166534450098e+02,-3.290867303230757557e+02
5.058246620031140450e-01,3.971706613871309344e+01,3.876680822146087735e+01,-3.435771386601289237e+02,-3.295465930545998958e+02
5.152286445817564342e-01,3.972989275228480466e+01,3.880816521681148856e+01,-3.438606653149545309e+02,-3.300025022914363717e+02
5.248074602497725394e-01,3.974229137805230749e+01,3.884840261215889257e+01,-3.441398354379702482e+02,-3.304543722951514724e+02
5.345643593969716667e-01,3.975427513354013342e+01,3.888754071352877872e+01,-3.444146889809031222e+02,-3.309021223784596941e+02
5.445026528424211643e-01,3.976585681109036585e+01,3.892560000516808572e+01,-3.446852669372431706e+02,-3.313456768808410402e+02
5.546257129579107437e-01,3.977704888077906276e+01,3.896260111568471984e+01,-3.449516112555425593e+02,-3.317849651329568132e+02
5.649369748123025392e-01,3.978786349369457298e+01,3.899856478512079860e+01,-3.452137647559285938e+02,-3.322199214104763882e+02
5.754399373371569260e-01,3.979831248554561540e+01,3.903351183303396965e+01,-3.454717710498156862e+02,-3.326504848779478039e+02
5.861381645140287810e-01,3.980840738056797079e+01,3.906746312765206852e+01,-3.457256744627949274e+02,-3.330765995233611534e+02
5.970352865838368661e-01,3.981815939570064700e+01,3.910043955615792299e+01,-3.459755199606698284e+02,-3.334982140840654097e+02
6.081350012787178905e-01,3.982757944500313840e+01,3.913246199615237941e+01,-3.462213530785988382e+02,-3.339152819647032402e+02
6.194410750767814777e-01,3.983667814428736165e+01,3.916355128833537691e+01,-3.464632198532993925e+02,-3.343277611478309836e+02
6.309573444801933606e-01,3.984546581593895809e+01,3.919372821043661759e+01,-3.467011667582605696e+02,-3.347356140978865255e+02
6.426877173170196800e-01,3.985395249390401773e+01,3.922301345241997694e+01,-3.469352406419085924e+02,-3.351388076591615572e+02
6.546361740672750340e-01,3.986214792881892066e+01,3.925142759297811068e+01,-3.471654886686616237e+02,-3.355373129484235619e+02
6.668067692136222524e-01,3.987006159326190868e+01,3.927899107732693551e+01,-3.473919582628089415e+02,-3.359311052428183189e+02
6.792036326171846383e-01,3.987770268710666244e+01,3.930572419630307479e+01,-3.476146970551452569e+02,-3.363201638636686539e+02
6.918309709189366385e-01,3.988508014295926785e+01,3.933164706676127764e+01,-3.478337528322877574e+02,-3.367044720567621994e+02
7.046930689671468961e-01,3.989220263166106406e+01,3.935677961326297236e+01,-3.480491734886018662e+02,-3.370840168697042714e+02
7.177942912713618506e-01,3.989907856784125784e+01,3.938114155104238279e+01,-3.482610069806601700e+02,-3.374587890268832666e+02
7.311390834834176067e-01,3.990571611550430475e+01,3.940475237023130717e+01,-3.484693012841561313e+02,-3.378287828025751196e+02
7.447319739059892196e-01,3.991212319363783934e+01,3.942763132131992876e+01,-3.486741043531956734e+02,-3.381939958926851091e+02
7.585775750291839925e-01,3.991830748182850641e+01,3.944979740182679961e+01,-3.488754640818872303e+02,-3.385544292855981894e+02
7.726805850957025879e-01,3.992427642587353631e+01,3.947126934414808375e+01,-3.490734282681511900e+02,-3.389100871325828166e+02
7.870457896950989740e-01,3.993003724337724236e+01,3.949206560455293413e+01,-3.492680445796705158e+02,-3.392609766181634541e+02
8.016780633876793294e-01,3.993559692932226568e+01,3.951220435328953329e+01,-3.494593605219041024e+02,-3.396071078308489746e+02
8.165823713585927957e-01,3.994096226160649366e+01,3.953170346576408178e+01,-3.496474234080847623e+02,-3.399484936345780852e+02
8.317637711026708569e-01,3.994613980653714691e+01,3.955058051475322145e+01,-3.498322803311248208e+02,-3.402851495412109557e+02
8.472274141405963244e-01,3.995113592427449589e+01,3.956885276360920045e+01,-3.500139781373547407e+02,-3.406170935843732082e+02
8.629785477669702498e-01,3.995595677421838587e+01,3.958653716041561665e+01,-3.501925634020183224e+02,-3.409443461949285279e+02
8.790225168308842818e-01,3.996060832033129628e+01,3.960365033305124172e+01,-3.503680824064529133e+02,-3.412669300783305175e+02
8.953647655495936553e-01,3.996509633639252712e+01,3.962020858511851884e+01,-3.505405811168815831e+02,-3.415848700940802019e+02
9.120108393559096527e-01,3.996942641117845341e+01,3.963622789269354030e+01,-3.507101051647481427e+02,-3.418981931374898409e+02
9.289663867799362595e-01,3.997360395356466967e+01,3.965172390185387741e+01,-3.508766998285257728e+02,-3.422069280239310842e+02
9.462371613657929448e-01,3.997763419754609515e+01,3.966671192694134618e+01,-3.510404100169328103e+02,-3.425111053757221384e+02
9.638290236239704933e-01,3.998152220717181393e+01,3.968120694951677052e+01,-3.512012802534910065e+02,-3.428107575117889496e+02
9.817479430199843593e-01,3.998527288139177216e+01,3.969522361796479260e+01,-3.513593546623628185e+02,-3.431059183402130088e+02
1.000000000000000000e+00,3.998889095881295219e+01,3.970877624770727010e+01,-3.515146769554068555e+02,-3.433966232537620158e+02
1.018591388054116864e+00,3.999238102236301984e+01,3.972187882198495146e+01,-3.516672904203918506e+02,-3.436829090284788890e+02
1.037528415818012695e+00,3.999574750385981048e+01,3.973454499316779476e+01,-3.518172379103128264e+02,-3.439648137253899449e+02
1.056817509213658468e+00,3.999899468848542483e+01,3.974678808455586676e+01,-3.519645618337527821e+02,-3.442423765953777774e+02
1.076465213629834938e+00,4.000212671916389695e+01,3.975862109263347577e+01,-3.521093041462373208e+02,-3.445156379872472598e+02
1.096478196143185091e+00,4.000514760084180210e+01,3.977005668974086205e+01,-3.522515063425302628e+02,-3.447846392590030291e+02
1.116863247780561119e+00,4.000806120467152738e+01,3.978110722712882819e+01,-3.523912094498214742e+02,-3.450494226923430006e+02
1.137627285823431089e+00,4.001087127209677874e+01,3.979178473836319085e+01,-3.525284540217573408e+02,-3.453100314103606934e+02
1.158777356155126226e+00,4.001358141884072950e+01,3.980210094304717927e+01,-3.526632801332702911e+02,-3.455665092984401099e+02
1.180320635651729733e+00,4.001619513879687418e+01,3.981206725083164599e+01,-3.527957273761614942e+02,-3.458189009283172481e+02
1.202264434617413169e+00,4.001871580782312776e+01,3.982169476568383004e+01,-3.529258348553950100e+02,-3.460672514852746531e+02
1.224616199265048833e+00,4.002114668743980985e+01,3.983099429038743722e+01,-3.530536411860632597e+02,-3.463116066984255781e+02
1.247383514242943248e+00,4.002349092843238765e+01,3.983997633124766935e+01,-3.531791844909845395e+02,-3.465520127740418275e+02
1.270574105208541971e+00,4.002575157435969544e+01,3.984865110297671720e+01,-3.533025023988952285e+02,-3.467885163318694595e+02
1.294195841449986339e+00,4.002793156496898774e+01,3.985702853373613408e+01,-3.534236320432015077e+02,-3.470211643443742560e+02
1.318256738556407237e+00,4.003003373951871424e+01,3.986511827031427657e+01,-3.535426100612567097e+02,-3.472500040788531805e+02
1.342764961137864255e+00,4.003206084001045895e+01,3.987292968341801469e+01,-3.536594725941308752e+02,-3.474750830423444086e+02
1.367728825595849518e+00,4.003401551433131544e+01,3.988047187305935637e+01,-3.537742552868432426e+02,-3.476964489292663529e+02
1.393156802945303863e+00,4.003590031930815485e+01,3.988775367401882477e+01,-3.538869932890262930e+02,-3.479141495717118460e+02
1.419057521689092605e+00,4.003771772367522885e+01,3.989478366136864906e+01,-3.539977212559941222e+02,-3.481282328923232967e+02
1.445439770745927888e+00,4.003947011095674213e+01,3.990157015603996626e+01,-3.541064733501889350e+02,-3.483387468596719714e+02
1.472312502432719494e+00,4.004115978226582229e+01,3.990812123041938264e+01,-3.542132832429781502e+02,-3.485457394460638056e+02
1.499684835502373748e+00,4.004278895902174185e+01,3.991444471396133764e+01,-3.543181841167804009e+02,-3.487492585876934186e+02
1.527566058238073232e+00,4.004435978558684894e+01,3.992054819880367234e+01,-3.544212086674947955e+02,-3.489493521470673159e+02
1.555965631605074950e+00,4.004587433182496170e+01,3.992643904537483479e+01,-3.545223891072138258e+02,-3.491460678776173268e+02
1.584893192461114264e+00,4.004733459558303110e+01,3.993212438798212816e+01,-3.546217571671969608e+02,-3.493394533904264563e+02
1.614358556826487101e+00,4.004874250509758582e+01,3.993761114037125282e+01,-3.547193441010867900e+02,-3.495295561229876284e+02
1.644371723214932413e+00,4.005009992132789876e+01,3.994290600124824664e+01,-3.548151806883483346e+02,-3.497164233099189801e+02
1.674942876026438210e+00,4.005140864021740299e+01,3.994801545975572310e+01,-3.549092972379133926e+02,-3.499001019555591370e+02
1.706082389003124256e+00,4.005267039488526137e+01,3.995294580089612424e+01,-3.550017235920137182e+02,-3.500806388083658476e+02
1.737800828749376247e+00,4.005388685774970980e+01,3.995770311089537330e+01,-3.550924891301868911e+02,-3.502580803370457829e+02
1.770108958317422099e+00,4.005505964258488660e+01,3.996229328250095847e+01,-3.551816227734395284e+02,-3.504324727083413222e+02
1.803017740859569784e+00,4.005619030651284618e+01,3.996672202020921105e+01,-3.552691529885540831e+02,-3.506038617664037247e+02
1.836538343348347313e+00,4.005728035193259018e+01,3.997099484541707426e+01,-3.553551077925252457e+02,-3.507722930136827699e+02
1.870682140365801827e+00,4.005833122838750882e+01,3.997511710149417041e+01,-3.554395147571134999e+02,-3.509378115932659625e+02
1.905460717963248340e+00,4.005934433437314368e+01,3.997909395877162808e+01,-3.555224010135038952e+02,-3.511004622725997706e+02
1.940885877592779529e+00,4.006032101908674292e+01,3.998293041944450721e+01,-3.556037932570584417e+02,-3.512602894285304274e+02
1.976969640111861937e+00,4.006126258412034247e+01,3.998663132238512929e+01,-3.556837177521521767e+02,-3.514173370335998356e+02
2.013724249862389293e+00,4.006217028509873046e+01,3.999020134786513125e+01,-3.557622003370811399e+02,-3.515716486435386514e+02
2.051162178825564730e+00,4.006304533326421335e+01,3.999364502218433159e+01,-3.558392664290353764e+02,-3.517232673858956105e+02
2.089296130854038758e+00,4.006388889700929923e+01,3.999696672220491678e+01,-3.559149410291257141e+02,-3.518722359497484149e+02
2.128139045982711419e+00,4.006470210335913151e+01,4.000017067978983931e+01,-3.559892487274569248e+02,-3.520185965764397338e+02
2.167704104819693889e+00,4.006548603940497344e+01,4.000326098614451098e+01,-3.560622137082400513e+02,-3.521623910512878979e+02
2.208004733018899213e+00,4.006624175369022112e+01,4.000624159606133645e+01,-3.561338597549353153e+02,-3.523036606962186852e+02
2.249054605835780318e+00,4.006697025755034502e+01,4.000911633206663254e+01,-3.562042102554189569e+02,-3.524424463632716993e+02
2.290867652767772267e+00,4.006767252640826626e+01,4.001188888847004677e+01,-3.562732882071688891e+02,-3.525787884289329099e+02
2.333458062281001943e+00,4.006834950102626181e+01,4.001456283531646818e+01,-3.563411162224611530e+02,-3.527127267892486771e+02
2.376840286624875898e+00,4.006900208871599744e+01,4.001714162224096327e+01,-3.564077165335723976e+02,-3.528443008556774316e+02
2.421029046736177470e+00,4.006963116450781115e+01,4.001962858222703545e+01,-3.564731109979837811e+02,-3.529735495516378592e+02
2.466039337234338547e+00,4.007023757228051153e+01,4.002202693526921706e+01,-3.565373211035800978e+02,-3.531005113097131130e+02
2.511886431509579687e+00,4.007082212585308412e+01,4.002433979194058367e+01,-3.566003679738404344e+02,-3.532252240694737679e+02
2.558585886905645257e+00,4.007138561003918653e+01,4.002657015686622088e+01,-3.566622723730151847e+02,-3.533477252758814871e+02
2.606153549998895258e+00,4.007192878166599570e+01,4.002872093210392990e+01,-3.567230547112870340e+02,-3.534680518782399758e+02
2.654605561975539096e+00,4.007245237055820297e+01,4.003079492043310950e+01,-3.567827350499102863e+02,-3.535862403296586081e+02
2.703958364108843160e+00,4.007295708048843608e+01,4.003279482855325000e+01,-3.568413331063261467e+02,-3.537023265869976285e+02
2.754228703338166273e+00,4.007344359009515244e+01,4.003472327019348853e+01,-3.568988682592512873e+02,-3.538163461112638970e+02
2.805433637951713077e+00,4.007391255376908390e+01,4.003658276913448333e+01,-3.569553595537352635e+02,-3.539283338684285809e+02
2.857590543374946446e+00,4.007436460250914223e+01,4.003837576214426974e+01,-3.570108257061854715e+02,-3.540383243306387158e+02
2.910717118066604936e+00,4.007480034474891539e+01,4.004010460182961850e+01,-3.570652851093566937e+02,-3.541463514777968840e+02
2.964831389524342331e+00,4.007522036715464253e+01,4.004177155940445942e+01,-3.571187558373024444e+02,-3.542524487994832043e+02
3.019951720402016537e+00,4.007562523539554178e+01,4.004337882737709720e+01,-3.571712556502867528e+02,-3.543566492971966113e+02
3.076096814740707952e+00,4.007601549488758508e+01,4.004492852215780374e+01,-3.572228019996542798e+02,-3.544589854868917769e+02
3.133285724315585608e+00,4.007639167151135950e+01,4.004642268658851378e+01,-3.572734120326565517e+02,-3.545594894017911543e+02
3.191537855100761600e+00,4.007675427230508092e+01,4.004786329239634313e+01,-3.573231025972336852e+02,-3.546581925954511121e+02
3.250872973854344039e+00,4.007710378613349889e+01,4.004925224257267047e+01,-3.573718902467487624e+02,-3.547551261450628317e+02
3.311311214825911176e+00,4.007744068433342477e+01,4.005059137367943123e+01,-3.574197912446753094e+02,-3.548503206549698348e+02
3.372873086588688896e+00,4.007776542133682085e+01,4.005188245808439262e+01,-3.574668215692349236e+02,-3.549438062603843491e+02
3.435579478998746605e+00,4.007807843527207581e+01,4.005312720612727162e+01,-3.575129969179857312e+02,-3.550356126312864262e+02
3.499451670283573623e+00,4.007838014854431208e+01,4.005432726821803158e+01,-3.575583327123590607e+02,-3.551257689764898942e+02
3.564511334262442599e+00,4.007867096839524379e+01,4.005548423686964554e+01,-3.576028441021454682e+02,-3.552143040478605940e+02
3.630780547701013994e+00,4.007895128744355162e+01,4.005659964866637779e+01,-3.576465459699271605e+02,-3.553012461446727457e+02
3.698281797802662751e+00,4.007922148420620090e+01,4.005767498616981470e+01,-3.576894529354584051e+02,-3.553866231180901991e+02
3.767037989839089107e+00,4.007948192360149164e+01,4.005871167976395242e+01,-3.577315793599919402e+02,-3.554704623757606328e+02
3.837072454922788811e+00,4.007973295743427400e+01,4.005971110944118152e+01,-3.577729393505515532e+02,-3.555527908865101949e+02
3.908408957924021099e+00,4.007997492486435220e+01,4.006067460653065382e+01,-3.578135467641504306e+02,-3.556336351851283553e+02
3.981071705534973137e+00,4.008020815285802740e+01,4.006160345537074363e+01,-3.578534152119547116e+02,-3.557130213772314846e+02
4.055085354483838778e+00,4.008043295662400851e+01,4.006249889492707439e+01,-3.578925580633931531e+02,-3.557909751441964659e+02
4.130475019901614253e+00,4.008064964003377639e+01,4.006336212035775191e+01,-3.579309884502105774e+02,-3.558675217481542177e+02
4.207266283844441901e+00,4.008085849602708350e+01,4.006419428452726805e+01,-3.579687192704677727e+02,-3.559426860370351733e+02
4.285485203974396029e+00,4.008105980700318582e+01,4.006499649947055985e+01,-3.580057631924855173e+02,-3.560164924496572780e+02
4.365158322401661017e+00,4.008125384519815526e+01,4.006576983780868062e+01,-3.580421326587343742e+02,-3.560889650208508783e+02
4.446312674691088596e+00,4.008144087304885517e+01,4.006651533411759658e+01,-3.580778398896690078e+02,-3.561601273866114070e+02
4.528975799036208727e+00,4.008162114354397687e+01,4.006723398625138088e+01,-3.581128968875085548e+02,-3.562300027892734988e+02
4.613175745603795619e+00,4.008179490056267014e+01,4.006792675662132552e+01,-3.581473154399621421e+02,-3.562986140827018176e+02
4.698941086052156102e+00,4.008196237920110860e+01,4.006859457343211517e+01,-3.581811071239001762e+02,-3.563659837374898416e+02
4.786300923226384896e+00,4.008212380608745917e+01,4.006923833187663320e+01,-3.582142833089716873e+02,-3.564321338461642199e+02
4.875284901033865026e+00,4.008227939968562481e+01,4.006985889529038047e+01,-3.582468551611680709e+02,-3.564970861283867976e+02
4.965923214503362715e+00,4.008242937058827238e+01,4.007045709626705587e+01,-3.582788336463334531e+02,-3.565608619361511842e+02
5.058246620031142449e+00,4.008257392179926626e+01,4.007103373773623645e+01,-3.583102295336217367e+02,-3.566234822589693181e+02
5.152286445817567007e+00,4.008271324900624677e+01,4.007158959400456411e+01,-3.583410533989015789e+02,-3.566849677290425120e+02
5.248074602497728947e+00,4.008284754084326096e+01,4.007212541176151177e+01,-3.583713156281085048e+02,-3.567453386264149344e+02
5.345643593969718665e+00,4.008297697914428426e+01,4.007264191105073081e+01,-3.584010264205458043e+02,-3.568046148841044101e+02
5.445026528424214085e+00,4.008310173918742692e+01,4.007313978620835826e+01,-3.584301957921335315e+02,-3.568628160932082665e+02
5.546257129579109879e+00,4.008322198993062813e+01,4.007361970676907958e+01,-3.584588335786070274e+02,-3.569199615079804175e+02
5.649369748123028501e+00,4.008333789423885918e+01,4.007408231834106971e+01,-3.584869494386647375e+02,-3.569760700508772402e+02
5.754399373371572146e+00,4.008344960910319799e+01,4.007452824345095621e+01,-3.585145528570664624e+02,-3.570311603175696291e+02
5.861381645140290253e+00,4.008355728585205213e+01,4.007495808235955081e+01,-3.585416531476815862e+02,-3.570852505819184444e+02
5.970352865838371770e+00,4.008366107035490700e+01,4.007537241384943627e+01,-3.585682594564891588e+02,-3.571383588009115897e+02
6.081350012787182457e+00,4.008376110321869845e+01,4.007577179598542472e+01,-3.585943807645290349e+02,-3.571905026195605615e+02
6.194410750767818108e+00,4.008385751997721513e+01,4.007615676684850570e+01,-3.586200258908053797e+02,-3.572416993757543082e+02
6.309573444801936937e+00,4.008395045127365819e+01,4.007652784524446332e+01,-3.586452034951432211e+02,-3.572919661050693776e+02
6.426877173170199242e+00,4.008404002303677061e+01,4.007688553138780208e+01,-3.586699220809976509e+02,-3.573413195455338496e+02
6.546361740672747231e+00,4.008412635665047219e+01,4.007723030756186233e+01,-3.586941899982174959e+02,-3.573897761423446013e+02
6.668067692136218305e+00,4.008420956911767519e+01,4.007756263875600666e+01,-3.587180154457630579e+02,-3.574373520525366530e+02
6.792036326171842830e+00,4.008428977321793241e+01,4.007788297328044536e+01,-3.587414064743787776e+02,-3.574840631496023775e+02
6.918309709189361278e+00,4.008436707765966389e+01,4.007819174335964618e+01,-3.587643709892218453e+02,-3.575299250280607453e+02
7.046930689671467185e+00,4.008444158722680584e+01,4.007848936570503895e+01,-3.587869167524468139e+02,-3.575749530079757506e+02
7.177942912713614732e+00,4.008451340292020149e+01,4.007877624206749090e+01,-3.588090513857464998e+02,-3.576191621394220306e+02
7.311390834834172736e+00,4.008458262209398981e+01,4.007905275977057613e+01,-3.588307823728508197e+02,-3.576625672068984159e+02
7.447319739059887311e+00,4.008464933858700618e+01,4.007931929222496592e+01,-3.588521170619832787e+02,-3.577051827336883321e+02
7.585775750291835706e+00,4.008471364284950056e+01,4.007957619942487071e+01,-3.588730626682756224e+02,-3.577470229861660869e+02
7.726805850957020994e+00,4.008477562206530109e+01,4.007982382842692459e+01,-3.588936262761420721e+02,-3.577881019780493830e+02
7.870457896950984633e+00,4.008483536026965055e+01,4.008006251381220864e+01,-3.589138148416129752e+02,-3.578284334745976594e+02
8.016780633876789963e+00,4.008489293846264445e+01,4.008029257813200275e+01,-3.589336351946282093e+02,-3.578680309967551807e+02
8.165823713585922405e+00,4.008494843471878255e+01,4.008051433233779903e+01,-3.589530940412924451e+02,-3.579069078252400686e+02
8.317637711026709013e+00,4.008500192429242759e+01,4.008072807619608824e+01,-3.589721979660904481e+02,-3.579450770045781951e+02
8.472274141405963022e+00,4.008505347971959054e+01,4.008093409868858714e+01,-3.589909534340653749e+02,-3.579825513470816531e+02
8.629785477669701166e+00,4.008510317091594999e+01,4.008113267839812011e+01,-3.590093667929590424e+02,-3.580193434367733403e+02
8.790225168308841930e+00,4.008515106527141114e+01,4.008132408388103585e+01,-3.590274442753154176e+02,-3.580554656332554941e+02
8.953647655495936775e+00,4.008519722774124716e+01,4.008150857402624467e+01,-3.590451920005476154e+02,-3.580909300755245113e+02
9.120108393559096527e+00,4.008524172093394355e+01,4.008168639840165071e+01,-3.590626159769693686e+02,-3.581257486857306844e+02
9.289663867799362151e+00,4.008528460519590908e+01,4.008185779758824907e+01,-3.590797221037906297e+02,-3.581599331728835409e+02
9.462371613657929004e+00,4.008532593869308158e+01,4.008202300350228597e+01,-3.590965161730791806e+02,-3.581934950365030659e+02
9.638290236239704711e+00,4.008536577748969165e+01,4.008218223970608562e+01,-3.591130038716875106e+02,-3.582264455702173223e+02
9.817479430199844259e+00,4.008540417562406333e+01,4.008233572170772163e+01,-3.591291907831463845e+02,-3.582587958653059559e+02
1.000000000000000000e+01,4.008544118518177868e+01,4.008248365725006579e+01,-3.591450823895250437e+02,-3.582905568141910067e+02
1.018591388054116997e+01,4.008547685636620628e+01,4.008262624658958373e+01,-3.591606840732591195e+02,-3.583217391138747985e+02
1.037528415818012739e+01,4.008551123756640067e+01,4.008276368276509061e+01,-3.591760011189460329e+02,-3.583523532693244533e+02
1.056817509213658468e+01,4.008554437542266413e+01,4.008289615185702814e+01,-3.591910387151093573e+02,-3.583824095968058714e+02
1.076465213629835027e+01,4.008557631488965711e+01,4.008302383323744777e+01,-3.592058019559317472e+02,-3.584119182271646196e+02
1.096478196143185180e+01,4.008560709929729171e+01,4.008314689981104806e+01,-3.592202958429576825e+02,-3.584408891090565703e+02
1.116863247780561252e+01,4.008563677040939410e+01,4.008326551824768558e+01,-3.592345252867658019e+02,-3.584693320121272109e+02
1.137627285823431045e+01,4.008566536848029926e+01,4.008337984920649433e+01,-3.592484951086120191e+02,-3.584972565301413283e+02
1.158777356155126270e+01,4.008569293230930697e+01,4.008349004755201861e+01,-3.592622100420431934e+02,-3.585246720840623311e+02
1.180320635651730043e+01,4.008571949929331879e+01,4.008359626256268626e+01,-3.592756747344829478e+02,-3.585515879250827993e+02
1.202264434617413080e+01,4.008574510547740033e+01,4.008369863813170753e+01,-3.592888937487882117e+02,-3.585780131376059785e+02
1.224616199265048877e+01,4.008576978560371629e+01,4.008379731296085424e+01,-3.593018715647796739e+02,-3.586039566421795257e+02
1.247383514242943292e+01,4.008579357315853287e+01,4.008389242074733971e+01,-3.593146125807434146e+02,-3.586294271983816202e+02
1.270574105208542015e+01,4.008581650041760724e+01,4.008398409036391996e+01,-3.593271211149071291e+02,-3.586544334076592691e+02
1.294195841449986339e+01,4.008583859848989306e+01,4.008407244603258590e+01,-3.593394014068893512e+02,-3.586789837161210812e+02
1.318256738556407370e+01,4.008585989735976796e+01,4.008415760749201695e+01,-3.593514576191233232e+02,-3.587030864172837141e+02
1.342764961137864255e+01,4.008588042592759848e+01,4.008423969015908739e+01,-3.593632938382550037e+02,-3.587267496547725045e+02
1.367728825595849429e+01,4.008590021204894782e+01,4.008431880528448232e+01,-3.593749140765162338e+02,-3.587499814249783867e+02
1.393156802945303774e+01,4.008591928257229142e+01,4.008439506010282116e+01,-3.593863222730739722e+02,-3.587727895796693360e+02
1.419057521689092560e+01,4.008593766337544650e+01,4.008446855797733122e+01,-3.593975222953546336e+02,-3.587951818285591230e+02
1.445439770745928065e+01,4.008595537940066578e+01,4.008453939853937698e+01,-3.594085179403448933e+02,-3.588171657418322411e+02
1.472312502432719405e+01,4.008597245468834558e+01,4.008460767782295164e+01,-3.594193129358697547e+02,-3.588387487526275095e+02
1.499684835502373836e+01,4.008598891240975348e+01,4.008467348839432276e+01,-3.594299109418469129e+02,-3.588599381594783040e+02
1.527566058238073232e+01,4.008600477489834191e+01,4.008473691947707351e+01,-3.594403155515194044e+02,-3.588807411287124864e+02
1.555965631605075039e+01,4.008602006368008119e+01,4.008479805707260368e+01,-3.594505302926654622e+02,-3.589011646968115770e+02
1.584893192461114175e+01,4.008603479950259896e+01,4.008485698407631048e+01,-3.594605586287872825e+02,-3.589212157727290560e+02
1.614358556826486790e+01,4.008604900236335311e+01,4.008491378038959851e+01,-3.594704039602776220e+02,-3.589409011401698990e+02
1.644371723214932501e+01,4.008606269153673907e+01,4.008496852302788227e+01,-3.594800696255665571e+02,-3.589602274598306622e+02
1.674942876026438299e+01,4.008607588560019508e+01,4.008502128622468064e+01,-3.594895589022464719e+02,-3.589792012716013119e+02
1.706082389003124433e+01,4.008608860245944072e+01,4.008507214153191711e+01,-3.594988750081777198e+02,-3.589978289967287992e+02
1.737800828749376336e+01,4.008610085937272061e+01,4.008512115791674546e+01,-3.595080211025735935e+02,-3.590161169399443679e+02
1.770108958317421965e+01,4.008611267297422387e+01,4.008516840185475871e+01,-3.595170002870666508e+02,-3.590340712915526069e+02
1.803017740859569784e+01,4.008612405929664391e+01,4.008521393741987993e+01,-3.595258156067546906e+02,-3.590516981294857715e+02
1.836538343348347269e+01,4.008613503379292808e+01,4.008525782637110524e+01,-3.595344700512290501e+02,-3.590690034213216677e+02
1.870682140365801516e+01,4.008614561135721743e+01,4.008530012823595001e+01,-3.595429665555835754e+02,-3.590859930262666353e+02
1.905460717963248385e+01,4.008615580634505449e+01,4.008534090039106701e+01,-3.595513080014055731e+02,-3.591026726971040262e+02
1.940885877592779352e+01,4.008616563259288768e+01,4.008538019813985898e+01,-3.595594972177490831e+02,-3.591190480821089750e+02
1.976969640111861892e+01,4.008617510343678703e+01,4.008541807478731300e+01,-3.595675369820901324e+02,-3.591351247269292912e+02
2.013724249862389470e+01,4.008618423173057010e+01,4.008545458171213483e+01,-3.595754300212655039e+02,-3.591509080764333248e+02
2.051162178825566684e+01,4.008619302986321031e+01,4.008548976843633938e+01,-3.595831790123934866e+02,-3.591664034765265114e+02
2.089296130854040356e+01,4.008620150977567675e+01,4.008552368269221944e+01,-3.595907865837788222e+02,-3.591816161759346073e+02
2.128139045982713284e+01,4.008620968297709908e+01,4.008555637048705478e+01,-3.595982553158009978e+02,-3.591965513279563993e+02
2.167704104819694422e+01,4.008621756056041363e+01,4.008558787616532015e+01,-3.596055877417865076e+02,-3.592112139921854350e+02
2.208004733018899302e+01,4.008622515321737012e+01,4.008561824246879013e+01,-3.596127863488651428e+02,-3.592256091362015127e+02
2.249054605835780407e+01,4.008623247125307643e+01,4.008564751059439146e+01,-3.596198535788110462e+02,-3.592397416372319299e+02
2.290867652767772356e+01,4.008623952459995365e+01,4.008567572025003756e+01,-3.596267918288683632e+02,-3.592536162837837423e+02
2.333458062281001943e+01,4.008624632283123645e+01,4.008570290970833128e+01,-3.596336034525619425e+02,-3.592672377772470327e+02
2.376840286624875986e+01,4.008625287517392621e+01,4.008572911585851273e+01,-3.596402907604935990e+02,-3.592806107334697003e+02
2.421029046736177293e+01,4.008625919052134634e+01,4.008575437425633226e+01,-3.596468560211236536e+02,-3.592937396843043985e+02
2.466039337234338547e+01,4.008626527744517176e+01,4.008577871917231050e+01,-3.596533014615382058e+02,-3.593066290791280153e+02
2.511886431509579509e+01,4.008627114420710313e+01,4.008580218363807290e+01,-3.596596292682029343e+02,-3.593192832863340982e+02
2.558585886905645168e+01,4.008627679877001526e+01,4.008582479949120625e+01,-3.596658415877028574e+02,-3.593317065947991296e+02
2.606153549998894903e+01,4.008628224880884261e+01,4.008584659741833889e+01,-3.596719405274689052e+02,-3.593439032153215180e+02
2.654605561975538564e+01,4.008628750172092481e+01,4.008586760699672169e+01,-3.596779281564909638e+02,-3.593558772820365448e+02
2.703958364108843426e+01,4.008629256463605373e+01,4.008588785673435240e+01,-3.596838065060184704e+02,-3.593676328538051052e+02
2.754228703338166184e+01,4.008629744442618659e+01,4.008590737410857230e+01,-3.596895775702479341e+02,-3.593791739155774394e+02
2.805433637951713166e+01,4.008630214771473277e+01,4.008592618560334131e+01,-3.596952433069978952e+02,-3.593905043797334997e+02
2.857590543374946179e+01,4.008630668088557059e+01,4.008594431674510616e+01,-3.597008056383722305e+02,-3.594016280873983078e+02
2.910717118066605025e+01,4.008631105009166617e+01,4.008596179213741095e+01,-3.597062664514104426e+02,-3.594125488097342895e+02
2.964831389524342242e+01,4.008631526126347211e+01,4.008597863549429263e+01,-3.597116275987271479e+02,-3.594232702492107023e+02
3.019951720402016093e+01,4.008631932011694943e+01,4.008599486967234782e+01,-3.597168908991391731e+02,-3.594337960408495292e+02
3.076096814740708041e+01,4.008632323216132676e+01,4.008601051670176219e+01,-3.597220581382817386e+02,-3.594441297534499427e+02
3.133285724315585696e+01,4.008632700270656812e+01,4.008602559781621721e+01,-3.597271310692129873e+02,-3.594542748907899750e+02
3.191537855100761334e+01,4.008633063687060627e+01,4.008604013348160322e+01,-3.597321114130081696e+02,-3.594642348928074398e+02
3.250872973854343684e+01,4.008633413958627045e+01,4.008605414342383710e+01,-3.597370008593424586e+02,-3.594740131367587423e+02
3.311311214825911264e+01,4.008633751560795133e+01,4.008606764665556454e+01,-3.597418010670633635e+02,-3.594836129383576235e+02
3.372873086588688807e+01,4.008634076951813086e+01,4.008608066150194560e+01,-3.597465136647526833e+02,-3.594930375528930426e+02
3.435579478998746339e+01,4.008634390573349293e+01,4.008609320562555922e+01,-3.597511402512782865e+02,-3.595022901763269374e+02
3.499451670283573179e+01,4.008634692851104120e+01,4.008610529605025619e+01,-3.597556823963361126e+02,-3.595113739463723732e+02
3.564511334262442688e+01,4.008634984195375495e+01,4.008611694918435830e+01,-3.597601416409817716e+02,-3.595202919435521380e+02
3.630780547701014171e+01,4.008635265001625925e+01,4.008612818084282026e+01,-3.597645194981527084e+02,-3.595290471922383517e+02
3.698281797802662396e+01,4.008635535651011139e+01,4.008613900626872351e+01,-3.597688174531812706e+02,-3.595376426616733738e+02
3.767037989839089107e+01,4.008635796510904470e+01,4.008614944015394599e+01,-3.597730369642976598e+02,-3.595460812669718962e+02
3.837072454922788012e+01,4.008636047935388547e+01,4.008615949665907863e+01,-3.597771794631244688e+02,-3.595543658701056415e+02
3.908408957924021365e+01,4.008636290265741309e+01,4.008616918943264551e+01,-3.597812463551617839e+02,-3.595624992808696447e+02
3.981071705534973404e+01,4.008636523830897147e+01,4.008617853162960643e+01,-3.597852390202633046e+02,-3.595704842578316516e+02
4.055085354483838955e+01,4.008636748947891704e+01,4.008618753592919859e+01,-3.597891588131047342e+02,-3.595783235092635550e+02
4.130475019901614786e+01,4.008636965922295303e+01,4.008619621455216731e+01,-3.597930070636421078e+02,-3.595860196940570859e+02
4.207266283844441546e+01,4.008637175048625068e+01,4.008620457927727188e+01,-3.597967850775634702e+02,-3.595935754226218819e+02
4.285485203974396740e+01,4.008637376610746372e+01,4.008621264145736518e+01,-3.598004941367307765e+02,-3.596009932577678683e+02
4.365158322401661195e+01,4.008637570882257961e+01,4.008622041203469166e+01,-3.598041354996148584e+02,-3.596082757155720060e+02
4.446312674691088773e+01,4.008637758126862138e+01,4.008622790155580873e+01,-3.598077104017222041e+02,-3.596154252662284421e+02
4.528975799036209082e+01,4.008637938598721462e+01,4.008623512018586865e+01,-3.598112200560132123e+02,-3.596224443348838804e+02
4.613175745603795264e+01,4.008638112542809040e+01,4.008624207772237469e+01,-3.598146656533142504e+02,-3.596293353024578892e+02
4.698941086052155924e+01,4.008638280195235382e+01,4.008624878360855348e+01,-3.598180483627206740e+02,-3.596361005064479741e+02
4.786300923226384896e+01,4.008638441783570983e+01,4.008625524694608089e+01,-3.598213693319937079e+02,-3.596427422417204411e+02
4.875284901033865026e+01,4.008638597527155412e+01,4.008626147650748806e+01,-3.598246296879494821e+02,-3.596492627612865363e+02
4.965923214503362715e+01,4.008638747637395028e+01,4.008626748074803459e+01,-3.598278305368409633e+02,-3.596556642770648295e+02
5.058246620031141561e+01,4.008638892318050040e+01,4.008627326781719091e+01,-3.598309729647333484e+02,-3.596619489606296156e+02
5.152286445817566829e+01,4.008639031765510197e+01,4.008627884556971566e+01,-3.598340580378720688e+02,-3.596681189439459558e+02
5.248074602497728591e+01,4.008639166169061241e+01,4.008628422157624982e+01,-3.598370868030445990e+02,-3.596741763200908508e+02
5.345643593969719376e+01,4.008639295711144968e+01,4.008628940313369071e+01,-3.598400602879352732e+02,-3.596801231439620778e+02
5.445026528424213552e+01,4.008639420567600808e+01,4.008629439727499033e+01,-3.598429795014739057e+02,-3.596859614329734427e+02
5.546257129579110057e+01,4.008639540907910970e+01,4.008629921077875480e+01,-3.598458454341777610e+02,-3.596916931677380944e+02
5.649369748123028501e+01,4.008639656895426384e+01,4.008630385017843878e+01,-3.598486590584879536e+02,-3.596973202927387661e+02
5.754399373371572324e+01,4.008639768687589822e+01,4.008630832177119174e+01,-3.598514213290984571e+02,-3.597028447169862488e+02
5.861381645140290431e+01,4.008639876436148342e+01,4.008631263162644132e+01,-3.598541331832807373e+02,-3.597082683146658724e+02
5.970352865838371770e+01,4.008639980287361482e+01,4.008631678559406453e+01,-3.598567955412010519e+02,-3.597135929257722751e+02
6.081350012787182635e+01,4.008640080382198789e+01,4.008632078931236720e+01,-3.598594093062328056e+02,-3.597188203567321807e+02
6.194410750767818286e+01,4.008640176856529536e+01,4.008632464821577912e+01,-3.598619753652628219e+02,-3.597239523810165451e+02
6.309573444801936404e+01,4.008640269841309589e+01,4.008632836754213002e+01,-3.598644945889922155e+02,-3.597289907397412208e+02
6.426877173170200308e+01,4.008640359462758340e+01,4.008633195233983315e+01,-3.598669678322316940e+02,-3.597339371422567069e+02
6.546361740672753626e+01,4.008640445842529942e+01,4.008633540747469226e+01,-3.598693959341916297e+02,-3.597387932667270434e+02
6.668067692136224878e+01,4.008640529097876026e+01,4.008633873763656652e+01,-3.598717797187664473e+02,-3.597435607606985286e+02
6.792036326171850646e+01,4.008640609341810546e+01,4.008634194734565170e+01,-3.598741199948144072e+02,-3.597482412416578654e+02
6.918309709189362877e+01,4.008640686683258281e+01,4.008634504095866191e+01,-3.598764175564314769e+02,-3.597528362975801315e+02
7.046930689671467007e+01,4.008640761227202631e+01,4.008634802267475550e+01,-3.598786731832215082e+02,-3.597573474874669159e+02
7.177942912713615442e+01,4.008640833074831988e+01,4.008635089654120520e+01,-3.598808876405597061e+02,-3.597617763418745085e+02
7.311390834834172381e+01,4.008640902323674027e+01,4.008635366645890485e+01,-3.598830616798531423e+02,-3.597661243634326524e+02
7.447319739059888377e+01,4.008640969067727866e+01,4.008635633618764871e+01,-3.598851960387950726e+02,-3.597703930273537480e+02
7.585775750291836061e+01,4.008641033397594100e+01,4.008635890935124024e+01,-3.598872914416153321e+02,-3.597745837819326766e+02
7.726805850957020994e+01,4.008641095400594878e+01,4.008636138944244465e+01,-3.598893485993261265e+02,-3.597786980490378710e+02
7.870457896950985344e+01,4.008641155160895408e+01,4.008636377982767129e+01,-3.598913682099631615e+02,-3.597827372245930633e+02
8.016780633876788897e+01,4.008641212759614803e+01,4.008636608375156385e+01,-3.598933509588222819e+02,-3.597867026790505633e+02
8.165823713585920984e+01,4.008641268274939762e+01,4.008636830434144827e+01,-3.598952975186924164e+02,-3.597905957578556126e+02
8.317637711026708303e+01,4.008641321782228317e+01,4.008637044461149657e+01,-3.598972085500830644e+02,-3.597944177819026095e+02
8.472274141405962666e+01,4.008641373354112858e+01,4.008637250746689062e+01,-3.598990847014491692e+02,-3.597981700479829215e+02
8.629785477669700811e+01,4.008641423060596054e+01,4.008637449570771594e+01,-3.599009266094105328e+02,-3.598018538292243420e+02
8.790225168308842285e+01,4.008641470969153175e+01,4.008637641203279145e+01,-3.599027348989681059e+02,-3.598054703755225887e+02
8.953647655495937840e+01,4.008641517144816646e+01,4.008637825904331464e+01,-3.599045101837158427e+02,-3.598090209139656395e+02
9.120108393559097237e+01,4.008641561650265572e+01,4.008638003924641424e+01,-3.599062530660489756e+02,-3.598125066492489168e+02
9.289663867799363572e+01,4.008641604545913850e+01,4.008638175505851819e+01,-3.599079641373684240e+02,-3.598159287640843900e+02
9.462371613657930425e+01,4.008641645889987615e+01,4.008638340880865769e+01,-3.599096439782811672e+02,-3.598192884196013779e+02
9.638290236239704711e+01,4.008641685738609794e+01,4.008638500274165040e+01,-3.599112931587975481e+02,-3.598225867557400193e+02
9.817479430199843193e+01,4.008641724145873297e+01,4.008638653902107052e+01,-3.599129122385245978e+02,-3.598258248916381490e+02
1.000000000000000000e+02,4.008641761163909223e+01,4.008638801973228283e+01,-3.599145017668555511e+02,-3.598290039260107278e+02
1.018591388054116891e+02,4.008641796842972127e+01,4.008638944688520667e+01,-3.599160622831567480e+02,-3.598321249375221669e+02
1.037528415818012633e+02,4.008641831231489761e+01,4.008639082241706575e+01,-3.599175943169503853e+02,-3.598351889851521719e+02
1.056817509213658610e+02,4.008641864376144071e+01,4.008639214819499585e+01,-3.599190983880939712e+02,-3.598381971085552209e+02
1.076465213629834778e+02,4.008641896321925913e+01,4.008639342601863120e+01,-3.599205750069571650e+02,-3.598411503284126525e+02
1.096478196143185215e+02,4.008641927112200420e+01,4.008639465762249188e+01,-3.599220246745944678e+02,-3.598440496467790126e+02
1.116863247780561181e+02,4.008641956788763139e+01,4.008639584467836414e+01,-3.599234478829155250e+02,-3.598468960474218648e+02
1.137627285823431009e+02,4.008641985391896156e+01,4.008639698879758129e+01,-3.599248451148519052e+02,-3.598496904961555174e+02
1.158777356155126341e+02,4.008642012960428502e+01,4.008639809153316946e+01,-3.599262168445209795e+02,-3.598524339411684991e+02
1.180320635651729759e+02,4.008642039531782331e+01,4.008639915438200774e+01,-3.599275635373867317e+02,-3.598551273133450650e+02
1.202264434617412974e+02,4.008642065142025501e+01,4.008640017878679629e+01,-3.599288856504177829e+02,-3.598577715265809047e+02
1.224616199265048948e+02,4.008642089825922028e+01,4.008640116613810989e+01,-3.599301836322424037e+02,-3.598603674780934512e+02
1.247383514242943221e+02,4.008642113616979685e+01,4.008640211777616713e+01,-3.599314579233006270e+02,-3.598629160487256513e+02
1.270574105208541908e+02,4.008642136547492640e+01,4.008640303499273472e+01,-3.599327089559938031e+02,-3.598654181032453039e+02
1.294195841449986233e+02,4.008642158648587639e+01,4.008640391903288247e+01,-3.599339371548312556e+02,-3.598678744906377460e+02
1.318256738556407299e+02,4.008642179950265216e+01,4.008640477109659628e+01,-3.599351429365744366e+02,-3.598702860443943905e+02
1.342764961137864077e+02,4.008642200481442330e+01,4.008640559234049761e+01,-3.599363267103781254e+02,-3.598726535827951807e+02
1.367728825595849571e+02,4.008642220269987178e+01,4.008640638387934985e+01,-3.599374888779294110e+02,-3.598749779091860432e+02
1.393156802945303525e+02,4.008642239342761826e+01,4.008640714678760730e+01,-3.599386298335838319e+02,-3.598772598122516797e+02
1.419057521689092596e+02,4.008642257725655611e+01,4.008640788210085759e+01,-3.599397499644994696e+02,-3.598795000662827874e+02
1.445439770745927888e+02,4.008642275443624214e+01,4.008640859081721430e+01,-3.599408496507679729e+02,-3.598816994314390172e+02
1.472312502432719441e+02,4.008642292520717376e+01,4.008640927389873099e+01,-3.599419292655437062e+02,-3.598838586540065876e+02
1.499684835502374085e+02,4.008642308980114422e+01,4.008640993227260907e+01,-3.599429891751703963e+02,-3.598859784666514088e+02
1.527566058238073197e+02,4.008642324844160498e+01,4.008641056683256920e+01,-3.599440297393052788e+02,-3.598880595886680567e+02
1.555965631605075146e+02,4.008642340134389315e+01,4.008641117843995971e+01,-3.599450513110413112e+02,-3.598901027262230627e+02
1.584893192461114211e+02,4.008642354871555824e+01,4.008641176792500005e+01,-3.599460542370267717e+02,-3.598921085725951912e+02
1.614358556826487074e+02,4.008642369075665357e+01,4.008641233608786081e+01,-3.599470388575832089e+02,-3.598940778084100884e+02
1.644371723214932786e+02,4.008642382765998491e+01,4.008641288369979350e+01,-3.599480055068204365e+02,-3.598960111018716361e+02
1.674942876026438228e+02,4.008642395961139471e+01,4.008641341150412529e+01,-3.599489545127504471e+02,-3.598979091089880171e+02
1.706082389003124433e+02,4.008642408679000368e+01,4.008641392021732486e+01,-3.599498861973981434e+02,-3.598997724737949966e+02
1.737800828749376478e+02,4.008642420936843109e+01,4.008641441052992604e+01,-3.599508008769112166e+02,-3.599016018285738028e+02
1.770108958317422037e+02,4.008642432751308604e+01,4.008641488310749423e+01,-3.599516988616667845e+02,-3.599033977940661089e+02
1.803017740859569926e+02,4.008642444138433802e+01,4.008641533859151451e+01,-3.599525804563771771e+02,-3.599051609796842399e+02
1.836538343348347553e+02,4.008642455113675851e+01,4.008641577760027985e+01,-3.599534459601932213e+02,-3.599068919837179692e+02
1.870682140365801729e+02,4.008642465691931989e+01,4.008641620072971534e+01,-3.599542956668055922e+02,-3.599085913935378471e+02
1.905460717963248385e+02,4.008642475887562995e+01,4.008641660855418110e+01,-3.599551298645446309e+02,-3.599102597857940964e+02
1.940885877592779707e+02,4.008642485714409531e+01,4.008641700162727517e+01,-3.599559488364780577e+02,-3.599118977266123238e+02
1.976969640111861963e+02,4.008642495185807775e+01,4.008641738048257253e+01,-3.599567528605071516e+02,-3.599135057717857649e+02
2.013724249862389399e+02,4.008642504314617838e+01,4.008641774563432847e+01,-3.599575422094608825e+02,-3.599150844669636626e+02
2.051162178825566684e+02,4.008642513113229455e+01,4.008641809757821761e+01,-3.599583171511886803e+02,-3.599166343478364070e+02
2.089296130854040712e+02,4.008642521593586849e+01,4.008641843679197336e+01,-3.599590779486512702e+02,-3.599181559403174901e+02
2.128139045982713355e+02,4.008642529767201523e+01,4.008641876373607715e+01,-3.599598248600096326e+02,-3.599196497607216543e+02
2.167704104819696340e+02,4.008642537645169313e+01,4.008641907885430555e+01,-3.599605581387129973e+02,-3.599211163159401394e+02
2.208004733018901504e+02,4.008642545238182464e+01,4.008641938257441950e+01,-3.599612780335846765e+02,-3.599225561036128624e+02
2.249054605835782752e+02,4.008642552556550243e+01,4.008641967530870431e+01,-3.599619847889063635e+02,-3.599239696122969576e+02
2.290867652767774700e+02,4.008642559610204614e+01,4.008641995745453102e+01,-3.599626786445012954e+02,-3.599253573216328164e+02
2.333458062281004572e+02,4.008642566408721564e+01,4.008642022939487504e+01,-3.599633598358153108e+02,-3.599267197025065457e+02
2.376840286624878331e+02,4.008642572961331041e+01,4.008642049149889885e+01,-3.599640285939970568e+02,-3.599280572172099824e+02
2.421029046736180135e+02,4.008642579276924778e+01,4.008642074412236411e+01,-3.599646851459760910e+02,-3.599293703195974672e+02
2.466039337234341247e+02,4.008642585364078315e+01,4.008642098760820716e+01,-3.599653297145404167e+02,-3.599306594552397200e+02
2.511886431509582280e+02,4.008642591231053132e+01,4.008642122228694404e+01,-3.599659625184112883e+02,-3.599319250615751571e+02
2.558585886905647726e+02,4.008642596885813703e+01,4.008642144847713951e+01,-3.599665837723181880e+02,-3.599331675680581952e+02
2.606153549998897461e+02,4.008642602336036020e+01,4.008642166648583327e+01,-3.599671936870713012e+02,-3.599343873963051124e+02
2.654605561975541832e+02,4.008642607589119677e+01,4.008642187660893796e+01,-3.599677924696329683e+02,-3.599355849602370085e+02
2.703958364108846126e+02,4.008642612652192838e+01,4.008642207913169386e+01,-3.599683803231883417e+02,-3.599367606662202093e+02
2.754228703338168884e+02,4.008642617532130714e+01,4.008642227432901706e+01,-3.599689574472137679e+02,-3.599379149132042244e+02
2.805433637951716150e+02,4.008642622235556274e+01,4.008642246246586893e+01,-3.599695240375448293e+02,-3.599390480928569787e+02
2.857590543374949448e+02,4.008642626768854456e+01,4.008642264379763276e+01,-3.599700802864429647e+02,-3.599401605896979390e+02
2.910717118066608009e+02,4.008642631138179269e+01,4.008642281857046186e+01,-3.599706263826601571e+02,-3.599412527812283997e+02
2.964831389524345582e+02,4.008642635349460193e+01,4.008642298702159934e+01,-3.599711625115033939e+02,-3.599423250380596642e+02
3.019951720402019077e+02,4.008642639408415675e+01,4.008642314937969076e+01,-3.599716888548974794e+02,-3.599433777240386121e+02
3.076096814740711238e+02,4.008642643320554555e+01,4.008642330586513935e+01,-3.599722055914467660e+02,-3.599444111963713908e+02
3.133285724315588823e+02,4.008642647091187428e+01,4.008642345669035478e+01,-3.599727128964956364e+02,-3.599454258057445486e+02
3.191537855100764887e+02,4.008642650725433754e+01,4.008642360206010125e+01,-3.599732109421881319e+02,-3.599464218964438373e+02
3.250872973854347379e+02,4.008642654228225410e+01,4.008642374217166804e+01,-3.599736998975263305e+02,-3.599473998064714806e+02
3.311311214825913680e+02,4.008642657604318060e+01,4.008642387721526745e+01,-3.599741799284277022e+02,-3.599483598676602583e+02
3.372873086588692217e+02,4.008642660858293283e+01,4.008642400737421951e+01,-3.599746511977812702e+02,-3.599493024057866251e+02
3.435579478998749892e+02,4.008642663994569943e+01,4.008642413282519357e+01,-3.599751138655032605e+02,-3.599502277406808730e+02
3.499451670283576732e+02,4.008642667017404193e+01,4.008642425373849250e+01,-3.599755680885908191e+02,-3.599511361863358729e+02
3.564511334262446667e+02,4.008642669930899416e+01,4.008642437027823746e+01,-3.599760140211758426e+02,-3.599520280510137127e+02
3.630780547701017440e+02,4.008642672739010493e+01,4.008642448260262370e+01,-3.599764518145767624e+02,-3.599529036373499480e+02
3.698281797802666233e+02,4.008642675445549486e+01,4.008642459086414078e+01,-3.599768816173503865e+02,-3.599537632424565459e+02
3.767037989839092802e+02,4.008642678054190611e+01,4.008642469520972895e+01,-3.599773035753419208e+02,-3.599546071580225544e+02
3.837072454922792417e+02,4.008642680568474503e+01,4.008642479578104201e+01,-3.599777178317345943e+02,-3.599554356704133511e+02
3.908408957924024776e+02,4.008642682991813899e+01,4.008642489271459652e+01,-3.599781245270982595e+02,-3.599562490607674476e+02
3.981071705534977241e+02,4.008642685327500033e+01,4.008642498614196370e+01,-3.599785237994373119e+02,-3.599570476050921570e+02
4.055085354483843503e+02,4.008642687578700503e+01,4.008642507618998252e+01,-3.599789157842368468e+02,-3.599578315743570442e+02
4.130475019901610381e+02,4.008642689748474197e+01,4.008642516298087344e+01,-3.599793006145095546e+02,-3.599586012345860695e+02
4.207266283844437567e+02,4.008642691839764183e+01,4.008642524663245155e+01,-3.599796784208400027e+02,-3.599593568469477418e+02
4.285485203974392334e+02,4.008642693855410499e+01,4.008642532725828289e+01,-3.599800493314295977e+02,-3.599600986678436243e+02
4.365158322401656505e+02,4.008642695798148736e+01,4.008642540496779105e+01,-3.599804134721396167e+02,-3.599608269489957593e+02
4.446312674691083657e+02,4.008642697670617139e+01,4.008642547986647031e+01,-3.599807709665342941e+02,-3.599615419375314787e+02
4.528975799036204535e+02,4.008642699475355897e+01,4.008642555205599933e+01,-3.599811219359223173e+02,-3.599622438760676459e+02
4.613175745603790574e+02,4.008642701214814963e+01,4.008642562163436196e+01,-3.599814664993985502e+02,-3.599629330027930791e+02
4.698941086052150808e+02,4.008642702891356890e+01,4.008642568869600353e+01,-3.599818047738839368e+02,-3.599636095515489274e+02
4.786300923226380064e+02,4.008642704507256127e+01,4.008642575333196589e+01,-3.599821368741653487e+02,-3.599642737519085927e+02
4.875284901033859910e+02,4.008642706064706829e+01,4.008642581562997975e+01,-3.599824629129347500e+02,-3.599649258292550371e+02
4.965923214503357599e+02,4.008642707565823571e+01,4.008642587567462101e+01,-3.599827830008271121e+02,-3.599655660048577488e+02
5.058246620031137581e+02,4.008642709012643479e+01,4.008642593354738892e+01,-3.599830972464581009e+02,-3.599661944959474340e+02
5.152286445817561571e+02,4.008642710407129783e+01,4.008642598932684109e+01,-3.599834057564609111e+02,-3.599668115157900843e+02
5.248074602497722481e+02,4.008642711751176080e+01,4.008642604308868584e+01,-3.599837086355225892e+02,-3.599674172737591675e+02
5.345643593969713265e+02,4.008642713046607753e+01,4.008642609490592434e+01,-3.599840059864192199e+02,-3.599680119754065686e+02
5.445026528424208436e+02,4.008642714295181975e+01,4.008642614484887901e+01,-3.599842979100512252e+02,-3.599685958225325066e+02
5.546257129579104230e+02,4.008642715498594100e+01,4.008642619298534981e+01,-3.599845845054773008e+02,-3.599691690132540316e+02
5.649369748123021964e+02,4.008642716658477667e+01,4.008642623938068539e+01,-3.599848658699480666e+02,-3.599697317420719855e+02
5.754399373371566071e+02,4.008642717776406528e+01,4.008642628409784692e+01,-3.599851420989392636e+02,-3.599702841999373391e+02
5.861381645140285173e+02,4.008642718853899822e+01,4.008642632719755028e+01,-3.599854132861838139e+02,-3.599708265743158222e+02
5.970352865838366370e+02,4.008642719892418427e+01,4.008642636873829446e+01,-3.599856795237039933e+02,-3.599713590492514754e+02
6.081350012787175956e+02,4.008642720893372768e+01,4.008642640877646812e+01,-3.599859409018424117e+02,-3.599718818054291773e+02
6.194410750767812033e+02,4.008642721858122826e+01,4.008642644736642779e+01,-3.599861975092928219e+02,-3.599723950202360925e+02
6.309573444801930009e+02,4.008642722787975288e+01,4.008642648456054758e+01,-3.599864494331299056e+02,-3.599728988678215273e+02
6.426877173170194055e+02,4.008642723684194209e+01,4.008642652040931864e+01,-3.599866967588392299e+02,-3.599733935191563319e+02
6.546361740672747374e+02,4.008642724547996750e+01,4.008642655496140605e+01,-3.599869395703461805e+02,-3.599738791420907660e+02
6.668067692136219193e+02,4.008642725380554594e+01,4.008642658826371274e+01,-3.599871779500441562e+02,-3.599743559014114567e+02
6.792036326171842120e+02,4.008642726182998217e+01,4.008642662036144344e+01,-3.599874119788227063e+02,-3.599748239588974457e+02
6.918309709189362593e+02,4.008642726956416880e+01,4.008642665129816152e+01,-3.599876417360950995e+02,-3.599752834733749296e+02
7.046930689671467007e+02,4.008642727701858632e+01,4.008642668111587426e+01,-3.599878672998250408e+02,-3.599757346007711476e+02
7.177942912713615442e+02,4.008642728420339552e+01,4.008642670985504708e+01,-3.599880887465533306e+02,-3.599761774941674162e+02
7.311390834834173802e+02,4.008642729112830239e+01,4.008642673755470298e+01,-3.599883061514236715e+02,-3.599766123038510273e+02
7.447319739059888661e+02,4.008642729780273584e+01,4.008642676425242968e+01,-3.599885195882082485e+02,-3.599770391773662936e+02
7.585775750291835493e+02,4.008642730423574818e+01,4.008642678998447906e+01,-3.599887291293327962e+02,-3.599774582595643437e+02
7.726805850957022130e+02,4.008642731043607199e+01,4.008642681478576719e+01,-3.599889348459011558e+02,-3.599778696926526322e+02
7.870457896950985059e+02,4.008642731641212720e+01,4.008642683868997381e+01,-3.599891368077192055e+02,-3.599782736162430865e+02
8.016780633876788897e+02,4.008642732217201399e+01,4.008642686172954228e+01,-3.599893350833189061e+02,-3.599786701673992866e+02
8.165823713585922405e+02,4.008642732772356965e+01,4.008642688393574360e+01,-3.599895297399813785e+02,-3.599790594806831905e+02
8.317637711026708303e+02,4.008642733307431172e+01,4.008642690533872610e+01,-3.599897208437595282e+02,-3.599794416882008363e+02
8.472274141405963519e+02,4.008642733823151616e+01,4.008642692596754387e+01,-3.599899084595009526e+02,-3.599798169196469644e+02
8.629785477669702232e+02,4.008642734320218182e+01,4.008642694585019939e+01,-3.599900926508693146e+02,-3.599801853023490708e+02
8.790225168308842285e+02,4.008642734799305174e+01,4.008642696501367908e+01,-3.599902734803665112e+02,-3.599805469613107221e+02
8.953647655495936988e+02,4.008642735261063450e+01,4.008642698348399591e+01,-3.599904510093537056e+02,-3.599809020192539606e+02
9.120108393559096385e+02,4.008642735706118998e+01,4.008642700128622494e+01,-3.599906252980718477e+02,-3.599812505966608569e+02
9.289663867799363288e+02,4.008642736135076490e+01,4.008642701844452461e+01,-3.599907964056625360e+02,-3.599815928118144939e+02
9.462371613657928719e+02,4.008642736548517860e+01,4.008642703498219362e+01,-3.599909643901879690e+02,-3.599819287808388708e+02
9.638290236239706701e+02,4.008642736947005858e+01,4.008642705092167802e+01,-3.599911293086503292e+02,-3.599822586177388075e+02
9.817479430199844046e+02,4.008642737331079076e+01,4.008642706628462804e+01,-3.599912912170116783e+02,-3.599825824344379726e+02
9.999999999999998863e+02,4.008642737701259762e+01,4.008642708109186970e+01,-3.599914501702126017e+02,-3.599829003408174799e+02
1.018591388054117033e+03,4.008642738058050980e+01,4.008642709536352555e+01,-3.599916062221906827e+02,-3.599832124447526098e+02
1.037528415818012718e+03,4.008642738401937322e+01,4.008642710911896501e+01,-3.599917594258993745e+02,-3.599835188521499276e+02
1.056817509213658468e+03,4.008642738733384903e+01,4.008642712237684691e+01,-3.599919098333253373e+02,-3.599838196669829813e+02
1.076465213629835034e+03,4.008642739052842785e+01,4.008642713515519063e+01,-3.599920574955064581e+02,-3.599841149913274307e+02
1.096478196143185187e+03,4.008642739360746532e+01,4.008642714747131919e+01,-3.599922024625491872e+02,-3.599844049253960065e+02
1.116863247780561096e+03,4.008642739657513232e+01,4.008642715934196588e+01,-3.599923447836452510e+02,-3.599846895675721612e+02
1.137627285823431066e+03,4.008642739943545052e+01,4.008642717078323869e+01,-3.599924845070887045e+02,-3.599849690144438910e+02
1.158777356155126199e+03,4.008642740219230660e+01,4.008642718181066300e+01,-3.599926216802920180e+02,-3.599852433608361366e+02
1.180320635651729845e+03,4.008642740484943801e+01,4.008642719243922414e+01,-3.599927563498022209e+02,-3.599855126998430137e+02
1.202264434617413144e+03,4.008642740741046850e+01,4.008642720268333903e+01,-3.599928885613169882e+02,-3.599857771228596448e+02
1.224616199265048863e+03,4.008642740987886555e+01,4.008642721255691299e+01,-3.599930183596997040e+02,-3.599860367196129687e+02
1.247383514242943193e+03,4.008642741225797579e+01,4.008642722207334685e+01,-3.599931457889949797e+02,-3.599862915781921515e+02
1.270574105208541823e+03,4.008642741455102509e+01,4.008642723124556539e+01,-3.599932708924436042e+02,-3.599865417850784866e+02
1.294195841449986347e+03,4.008642741676113985e+01,4.008642724008601732e+01,-3.599933937124970385e+02,-3.599867874251750095e+02
1.318256738556407527e+03,4.008642741889131855e+01,4.008642724860670370e+01,-3.599935142908319108e+02,-3.599870285818349771e+02
1.342764961137864248e+03,4.008642742094443179e+01,4.008642725681917796e+01,-3.599936326683641710e+02,-3.599872653368903457e+02
1.367728825595849457e+03,4.008642742292329331e+01,4.008642726473460982e+01,-3.599937488852630167e+02,-3.599874977706793970e+02
1.393156802945303525e+03,4.008642742483056054e+01,4.008642727236372139e+01,-3.599938629809644794e+02,-3.599877259620740801e+02
1.419057521689092709e+03,4.008642742666886249e+01,4.008642727971689368e+01,-3.599939749941847253e+02,-3.599879499885067844e+02
1.445439770745927945e+03,4.008642742844066476e+01,4.008642728680408140e+01,-3.599940849629334139e+02,-3.599881699259966581e+02
1.472312502432719384e+03,4.008642743014837606e+01,4.008642729363493373e+01,-3.599941929245262031e+02,-3.599883858491753017e+02
1.499684835502373971e+03,4.008642743179430568e+01,4.008642730021869482e+01,-3.599942989155979376e+02,-3.599885978313121200e+02
1.527566058238073538e+03,4.008642743338071313e+01,4.008642730656432462e+01,-3.599944029721145284e+02,-3.599888059443391626e+02
1.555965631605075032e+03,4.008642743490974425e+01,4.008642731268041359e+01,-3.599945051293858000e+02,-3.599890102588757372e+02
1.584893192461113813e+03,4.008642743638346673e+01,4.008642731857528929e+01,-3.599946054220767451e+02,-3.599892108442519998e+02
1.614358556826486847e+03,4.008642743780386297e+01,4.008642732425693112e+01,-3.599947038842198026e+02,-3.599894077685328284e+02
1.644371723214932672e+03,4.008642743917290829e+01,4.008642732973307687e+01,-3.599948005492262268e+02,-3.599896010985406747e+02
1.674942876026437943e+03,4.008642744049241458e+01,4.008642733501113753e+01,-3.599948954498975127e+02,-3.599897908998784715e+02
1.706082389003124263e+03,4.008642744176420791e+01,4.008642734009828956e+01,-3.599949886184363663e+02,-3.599899772369516882e+02
1.737800828749376251e+03,4.008642744298999361e+01,4.008642734500142524e+01,-3.599950800864576763e+02,-3.599901601729901586e+02
1.770108958317422321e+03,4.008642744417144144e+01,4.008642734972721655e+01,-3.599951698849995978e+02,-3.599903397700699088e+02
1.803017740859569813e+03,4.008642744531015722e+01,4.008642735428207260e+01,-3.599952580445333865e+02,-3.599905160891336209e+02
1.836538343348347325e+03,4.008642744640767575e+01,4.008642735867216800e+01,-3.599953445949743696e+02,-3.599906891900120627e+02
1.870682140365801615e+03,4.008642744746551045e+01,4.008642736290347131e+01,-3.599954295656917793e+02,-3.599908591314434716e+02
1.905460717963248271e+03,4.008642744848507533e+01,4.008642736698172371e+01,-3.599955129855188716e+02,-3.599910259710943592e+02
1.940885877592779025e+03,4.008642744946775593e+01,4.008642737091246744e+01,-3.599955948827624752e+02,-3.599911897655786106e+02
1.976969640111861963e+03,4.008642745041490230e+01,4.008642737470103157e+01,-3.599956752852129966e+02,-3.599913505704767545e+02
2.013724249862389570e+03,4.008642745132777918e+01,4.008642737835256042e+01,-3.599957542201534011e+02,-3.599915084403548349e+02
2.051162178825566571e+03,4.008642745220764425e+01,4.008642738187199939e+01,-3.599958317143688191e+02,-3.599916634287830561e+02
2.089296130854040712e+03,4.008642745305567701e+01,4.008642738526415172e+01,-3.599959077941553574e+02,-3.599918155883538020e+02
2.128139045982713469e+03,4.008642745387304274e+01,4.008642738853360044e+01,-3.599959824853293640e+02,-3.599919649706994846e+02
2.167704104819696113e+03,4.008642745466083568e+01,4.008642739168478641e+01,-3.599960558132358415e+02,-3.599921116265101659e+02
2.208004733018901334e+03,4.008642745542012875e+01,4.008642739472199423e+01,-3.599961278027571439e+02,-3.599922556055507243e+02
2.249054605835782695e+03,4.008642745615197356e+01,4.008642739764933793e+01,-3.599961984783216735e+02,-3.599923969566777942e+02
2.290867652767774871e+03,4.008642745685733644e+01,4.008642740047080366e+01,-3.599962678639117257e+02,-3.599925357278560796e+02
2.333458062281004459e+03,4.008642745753719083e+01,4.008642740319021414e+01,-3.599963359830720719e+02,-3.599926719661750099e+02
2.376840286624878445e+03,4.008642745819244624e+01,4.008642740581124997e+01,-3.599964028589176337e+02,-3.599928057178644849e+02
2.421029046736180135e+03,4.008642745882401215e+01,4.008642740833749230e+01,-3.599964685141414975e+02,-3.599929370283105641e+02
2.466039337234341019e+03,4.008642745943272701e+01,4.008642741077235883e+01,-3.599965329710224182e+02,-3.599930659420709844e+02
2.511886431509582053e+03,4.008642746001942214e+01,4.008642741311915358e+01,-3.599965962514327202e+02,-3.599931925028901674e+02
2.558585886905647840e+03,4.008642746058490047e+01,4.008642741538104559e+01,-3.599966583768453461e+02,-3.599933167537141685e+02
2.606153549998897688e+03,4.008642746112991517e+01,4.008642741756113992e+01,-3.599967193683414166e+02,-3.599934387367050590e+02
2.654605561975541605e+03,4.008642746165523363e+01,4.008642741966237821e+01,-3.599967792466172796e+02,-3.599935584932554775e+02
2.703958364108846126e+03,4.008642746216153796e+01,4.008642742168760265e+01,-3.599968380319913877e+02,-3.599936760640026705e+02
2.754228703338168998e+03,4.008642746264953161e+01,4.008642742363957723e+01,-3.599968957444115176e+02,-3.599937914888419073e+02
2.805433637951716264e+03,4.008642746311987537e+01,4.008642742552095228e+01,-3.599969524034613073e+02,-3.599939048069404066e+02
2.857590543374949448e+03,4.008642746357320874e+01,4.008642742733427156e+01,-3.599970080283669063e+02,-3.599940160567506382e+02
2.910717118066608236e+03,4.008642746401014278e+01,4.008642742908200063e+01,-3.599970626380035128e+02,-3.599941252760229986e+02
2.964831389524345468e+03,4.008642746443126015e+01,4.008642743076651982e+01,-3.599971162509019678e+02,-3.599942325018189990e+02
3.019951720402018964e+03,4.008642746483715769e+01,4.008642743239009576e+01,-3.599971688852547231e+02,-3.599943377705237140e+02
3.076096814740711125e+03,4.008642746522837541e+01,4.008642743395495245e+01,-3.599972205589222654e+02,-3.599944411178580594e+02
3.133285724315588595e+03,4.008642746560543912e+01,4.008642743546320730e+01,-3.599972712894391407e+02,-3.599945425788910143e+02
3.191537855100765228e+03,4.008642746596886752e+01,4.008642743691690669e+01,-3.599973210940196964e+02,-3.599946421880515004e+02
3.250872973854347038e+03,4.008642746631914378e+01,4.008642743831802591e+01,-3.599973699895642198e+02,-3.599947399791398652e+02
3.311311214825914249e+03,4.008642746665675105e+01,4.008642743966845501e+01,-3.599974179926645093e+02,-3.599948359853397619e+02
3.372873086588692331e+03,4.008642746698215120e+01,4.008642744097005561e+01,-3.599974651196094442e+02,-3.599949302392291202e+02
3.435579478998749892e+03,4.008642746729577766e+01,4.008642744222456145e+01,-3.599975113863906699e+02,-3.599950227727910601e+02
3.499451670283577187e+03,4.008642746759805675e+01,4.008642744343369202e+01,-3.599975568087080546e+02,-3.599951136174252611e+02
3.564511334262446326e+03,4.008642746788940769e+01,4.008642744459908869e+01,-3.599976014019746344e+02,-3.599952028039579659e+02
3.630780547701016985e+03,4.008642746817022839e+01,4.008642744572234307e+01,-3.599976451813224116e+02,-3.599952903626530656e+02
3.698281797802666460e+03,4.008642746844088123e+01,4.008642744680494729e+01,-3.599976881616070727e+02,-3.599953763232218762e+02
3.767037989839092916e+03,4.008642746870173568e+01,4.008642744784840772e+01,-3.599977303574131042e+02,-3.599954607148335413e+02
3.837072454922792076e+03,4.008642746895317543e+01,4.008642744885412412e+01,-3.599977717830589086e+02,-3.599955435661246952e+02
3.908408957924024890e+03,4.008642746919549893e+01,4.008642744982346073e+01,-3.599978124526014085e+02,-3.599956249052093540e+02
3.981071705534977355e+03,4.008642746942906854e+01,4.008642745075773917e+01,-3.599978523798411061e+02,-3.599957047596884649e+02
4.055085354483843275e+03,4.008642746965419690e+01,4.008642745165821708e+01,-3.599978915783265734e+02,-3.599957831566591153e+02
4.130475019901618907e+03,4.008642746987116823e+01,4.008642745252612372e+01,-3.599979300613591136e+02,-3.599958601227237978e+02
4.207266283844445752e+03,4.008642747008029517e+01,4.008642745336263857e+01,-3.599979678419970810e+02,-3.599959356839994484e+02
4.285485203974391879e+03,4.008642747028186193e+01,4.008642745416889852e+01,-3.599980049330607130e+02,-3.599960098661264283e+02
4.365158322401656733e+03,4.008642747047613142e+01,4.008642745494599069e+01,-3.599980413471361089e+02,-3.599960826942769927e+02
4.446312674691083885e+03,4.008642747066338075e+01,4.008642745569498800e+01,-3.599980770965798342e+02,-3.599961541931640454e+02
4.528975799036204080e+03,4.008642747084385860e+01,4.008642745641687810e+01,-3.599981121935225588e+02,-3.599962243870493239e+02
4.613175745603790347e+03,4.008642747101780657e+01,4.008642745711266286e+01,-3.599981466498739451e+02,-3.599962932997518124e+02
4.698941086052151149e+03,4.008642747118545913e+01,4.008642745778328020e+01,-3.599981804773260023e+02,-3.599963609546558132e+02
4.786300923226380291e+03,4.008642747134704365e+01,4.008642745842963251e+01,-3.599982136873574632e+02,-3.599964273747186212e+02
4.875284901033860478e+03,4.008642747150279462e+01,4.008642745905262217e+01,-3.599982462912376491e+02,-3.599964925824785951e+02
4.965923214503357485e+03,4.008642747165290388e+01,4.008642745965306631e+01,-3.599982783000298809e+02,-3.599965566000628883e+02
5.058246620031137354e+03,4.008642747179757748e+01,4.008642746023178915e+01,-3.599983097245957993e+02,-3.599966194491946112e+02
5.152286445817561798e+03,4.008642747193703570e+01,4.008642746078958652e+01,-3.599983405755987746e+02,-3.599966811512003915e+02
5.248074602497723390e+03,4.008642747207144197e+01,4.008642746132720447e+01,-3.599983708635074890e+02,-3.599967417270176497e+02
5.345643593969713947e+03,4.008642747220098101e+01,4.008642746184538197e+01,-3.599984005985995736e+02,-3.599968011972016484e+02
5.445026528424208664e+03,4.008642747232583758e+01,4.008642746234480114e+01,-3.599984297909650195e+02,-3.599968595819324833e+02
5.546257129579104912e+03,4.008642747244618221e+01,4.008642746282617253e+01,-3.599984584505098155e+02,-3.599969169010219048e+02
5.649369748123022873e+03,4.008642747256217120e+01,4.008642746329012851e+01,-3.599984865869589044e+02,-3.599969731739199688e+02
5.754399373371566071e+03,4.008642747267396089e+01,4.008642746373730148e+01,-3.599985142098599340e+02,-3.599970284197219712e+02
5.861381645140284490e+03,4.008642747278170759e+01,4.008642746416829539e+01,-3.599985413285862137e+02,-3.599970826571744169e+02
5.970352865838365688e+03,4.008642747288556052e+01,4.008642746458369999e+01,-3.599985679523400108e+02,-3.599971359046817838e+02
6.081350012787176638e+03,4.008642747298566178e+01,4.008642746498408371e+01,-3.599985940901555068e+02,-3.599971881803127189e+02
6.194410750767811805e+03,4.008642747308213927e+01,4.008642746536998658e+01,-3.599986197509020371e+02,-3.599972395018057227e+02
6.309573444801931146e+03,4.008642747317512089e+01,4.008642746574192728e+01,-3.599986449432872178e+02,-3.599972898865759703e+02
6.426877173170193601e+03,4.008642747326474876e+01,4.008642746610041740e+01,-3.599986696758595031e+02,-3.599973393517205977e+02
6.546361740672747146e+03,4.008642747335112233e+01,4.008642746644593302e+01,-3.599986939570115396e+02,-3.599973879140244435e+02
6.668067692136218284e+03,4.008642747343437662e+01,4.008642746677896440e+01,-3.599987177949826105e+02,-3.599974355899664715e+02
6.792036326171843029e+03,4.008642747351461821e+01,4.008642746709993787e+01,-3.599987411978616478e+02,-3.599974823957244894e+02
6.918309709189362366e+03,4.008642747359196079e+01,4.008642746740930818e+01,-3.599987641735899615e+02,-3.599975283471811167e+02
7.046930689671467007e+03,4.008642747366650383e+01,4.008642746770748033e+01,-3.599987867299640243e+02,-3.599975734599291286e+02
7.177942912713614533e+03,4.008642747373835391e+01,4.008642746799487355e+01,-3.599988088746378594e+02,-3.599976177492767420e+02
7.311390834834171983e+03,4.008642747380760341e+01,4.008642746827186443e+01,-3.599988306151257689e+02,-3.599976612302526178e+02
7.447319739059888889e+03,4.008642747387434468e+01,4.008642746853884375e+01,-3.599988519588051190e+02,-3.599977039176112612e+02
7.585775750291835720e+03,4.008642747393867722e+01,4.008642746879616681e+01,-3.599988729129184435e+02,-3.599977458258377965e+02
7.726805850957020994e+03,4.008642747400067918e+01,4.008642746904418175e+01,-3.599988934845761150e+02,-3.599977869691530259e+02
7.870457896950984832e+03,4.008642747406044293e+01,4.008642746928322254e+01,-3.599989136807586192e+02,-3.599978273615180910e+02
8.016780633876789580e+03,4.008642747411803953e+01,4.008642746951360891e+01,-3.599989335083193396e+02,-3.599978670166394181e+02
8.165823713585922633e+03,4.008642747417355423e+01,4.008642746973567483e+01,-3.599989529739862064e+02,-3.599979059479732086e+02
8.317637711026709439e+03,4.008642747422705810e+01,4.008642746994971162e+01,-3.599989720843647092e+02,-3.599979441687301005e+02
8.472274141405963746e+03,4.008642747427863640e+01,4.008642747015599639e+01,-3.599989908459394314e+02,-3.599979816918795450e+02
8.629785477669702232e+03,4.008642747432833886e+01,4.008642747035482046e+01,-3.599990092650768929e+02,-3.599980185301543543e+02
8.790225168308841603e+03,4.008642747437625076e+01,4.008642747054645383e+01,-3.599990273480271412e+02,-3.599980546960547940e+02
8.953647655495937215e+03,4.008642747442242182e+01,4.008642747073116652e+01,-3.599990451009263666e+02,-3.599980902018532447e+02
9.120108393559095930e+03,4.008642747446693022e+01,4.008642747090917879e+01,-3.599990625297986639e+02,-3.599981250595978395e+02
9.289663867799363288e+03,4.008642747450983279e+01,4.008642747108076776e+01,-3.599990796405581364e+02,-3.599981592811168412e+02
9.462371613657929629e+03,4.008642747455117217e+01,4.008642747124614658e+01,-3.599990964390111117e+02,-3.599981928780227918e+02
9.638290236239705337e+03,4.008642747459101940e+01,4.008642747140554263e+01,-3.599991129308578479e+02,-3.599982258617160369e+02
9.817479430199844501e+03,4.008642747462943134e+01,4.008642747155916908e+01,-3.599991291216942955e+02,-3.599982582433890457e+02
1.000000000000000000e+04,4.008642747466645062e+01,4.008642747170724618e+01,-3.599991450170148255e+02,-3.599982900340299352e+02
1.018591388054116942e+04,4.008642747470212697e+01,4.008642747184995869e+01,-3.599991606222129690e+02,-3.599983212444262222e+02
1.037528415818012581e+04,4.008642747473651724e+01,4.008642747198750556e+01,-3.599991759425840883e+02,-3.599983518851686313e+02
1.056817509213658559e+04,4.008642747476965695e+01,4.008642747212008572e+01,-3.599991909833270824e+02,-3.599983819666543923e+02
1.076465213629834943e+04,4.008642747480160295e+01,4.008642747224786973e+01,-3.599992057495454674e+02,-3.599984114990912190e+02
1.096478196143185050e+04,4.008642747483239788e+01,4.008642747237103521e+01,-3.599992202462499904e+02,-3.599984404925003219e+02
1.116863247780561142e+04,4.008642747486207014e+01,4.008642747248973848e+01,-3.599992344783598810e+02,-3.599984689567200462e+02
1.137627285823430793e+04,4.008642747489068370e+01,4.008642747260415717e+01,-3.599992484507044992e+02,-3.599984969014092258e+02
1.158777356155126108e+04,4.008642747491823854e+01,4.008642747271443341e+01,-3.599992621680250409e+02,-3.599985243360503659e+02
1.180320635651729754e+04,4.008642747494481284e+01,4.008642747282070928e+01,-3.599992756349762999e+02,-3.599985512699528272e+02
1.202264434617413099e+04,4.008642747497042791e+01,4.008642747292314823e+01,-3.599992888561279756e+02,-3.599985777122561785e+02
1.224616199265048999e+04,4.008642747499511216e+01,4.008642747302189235e+01,-3.599993018359664916e+02,-3.599986036719330968e+02
1.247383514242943238e+04,4.008642747501890824e+01,4.008642747311704824e+01,-3.599993145788961328e+02,-3.599986291577924931e+02
1.270574105208541914e+04,4.008642747504183035e+01,4.008642747320877220e+01,-3.599993270892412056e+02,-3.599986541784826386e+02
1.294195841449986256e+04,4.008642747506393533e+01,4.008642747329717793e+01,-3.599993393712467196e+02,-3.599986787424936097e+02
1.318256738556407436e+04,4.008642747508523740e+01,4.008642747338238621e+01,-3.599993514290803205e+02,-3.599987028581608683e+02
1.342764961137864157e+04,4.008642747510577209e+01,4.008642747346451074e+01,-3.599993632668337114e+02,-3.599987265336676501e+02
1.367728825595849412e+04,4.008642747512556070e+01,4.008642747354366520e+01,-3.599993748885237892e+02,-3.599987497770476921e+02
1.393156802945303752e+04,4.008642747514463167e+01,4.008642747361996328e+01,-3.599993862980940662e+02,-3.599987725961882461e+02
1.419057521689092573e+04,4.008642747516301341e+01,4.008642747369349024e+01,-3.599993974994162045e+02,-3.599987949988325227e+02
1.445439770745928035e+04,4.008642747518072724e+01,4.008642747376435977e+01,-3.599994084962912098e+02,-3.599988169925825332e+02
1.472312502432719339e+04,4.008642747519780158e+01,4.008642747383267135e+01,-3.599994192924505683e+02,-3.599988385849013071e+02
1.499684835502374153e+04,4.008642747521427196e+01,4.008642747389851024e+01,-3.599994298915578952e+02,-3.599988597831158472e+02
1.527566058238072947e+04,4.008642747523012417e+01,4.008642747396196171e+01,-3.599994402972096168e+02,-3.599988805944194041e+02
1.555965631605075032e+04,4.008642747524541505e+01,4.008642747402312523e+01,-3.599994505129368463e+02,-3.599989010258738631e+02
1.584893192461114086e+04,4.008642747526015171e+01,4.008642747408207185e+01,-3.599994605422060658e+02,-3.599989210844121885e+02
1.614358556826487074e+04,4.008642747527435546e+01,4.008642747413888685e+01,-3.599994703884204341e+02,-3.599989407768409819e+02
1.644371723214932354e+04,4.008642747528804762e+01,4.008642747419365548e+01,-3.599994800549212073e+02,-3.599989601098424146e+02
1.674942876026438171e+04,4.008642747530124950e+01,4.008642747424643460e+01,-3.599994895449883643e+02,-3.599989790899768423e+02
1.706082389003124263e+04,4.008642747531396822e+01,4.008642747429730946e+01,-3.599994988618423122e+02,-3.599989977236847380e+02
1.737800828749376160e+04,4.008642747532622508e+01,4.008642747434633691e+01,-3.599995080086445114e+02,-3.599990160172891933e+02
1.770108958317422002e+04,4.008642747533804140e+01,4.008642747439359511e+01,-3.599995169884987831e+02,-3.599990339769976799e+02
1.803017740859570040e+04,4.008642747534942430e+01,4.008642747443914089e+01,-3.599995258044522188e+02,-3.599990516089044945e+02
1.836538343348347553e+04,4.008642747536040218e+01,4.008642747448304533e+01,-3.599995344594963740e+02,-3.599990689189928617e+02
1.870682140365801752e+04,4.008642747537096795e+01,4.008642747452535104e+01,-3.599995429565681775e+02,-3.599990859131364687e+02
1.905460717963248317e+04,4.008642747538117135e+01,4.008642747456613620e+01,-3.599995512985509549e+02,-3.599991025971019099e+02
1.940885877592779434e+04,4.008642747539099815e+01,4.008642747460545053e+01,-3.599995594882753380e+02,-3.599991189765507897e+02
1.976969640111862100e+04,4.008642747540046969e+01,4.008642747464332956e+01,-3.599995675285204584e+02,-3.599991350570409736e+02
2.013724249862389479e+04,4.008642747540960016e+01,4.008642747467985146e+01,-3.599995754220145159e+02,-3.599991508440291454e+02
2.051162178825566662e+04,4.008642747541840379e+01,4.008642747471504464e+01,-3.599995831714361429e+02,-3.599991663428722859e+02
2.089296130854040894e+04,4.008642747542687346e+01,4.008642747474895884e+01,-3.599995907794148025e+02,-3.599991815588297186e+02
2.128139045982713287e+04,4.008642747543505180e+01,4.008642747478165802e+01,-3.599995982485322656e+02,-3.599991964970645881e+02
2.167704104819696295e+04,4.008642747544293172e+01,4.008642747481317059e+01,-3.599996055813229532e+02,-3.599992111626459632e+02
2.208004733018901243e+04,4.008642747545052742e+01,4.008642747484353208e+01,-3.599996127802750721e+02,-3.599992255605502578e+02
2.249054605835782786e+04,4.008642747545783891e+01,4.008642747487280644e+01,-3.599996198478315819e+02,-3.599992396956632206e+02
2.290867652767774416e+04,4.008642747546489460e+01,4.008642747490102920e+01,-3.599996267863905928e+02,-3.599992535727812992e+02
2.333458062281004459e+04,4.008642747547169449e+01,4.008642747492822167e+01,-3.599996335983067297e+02,-3.599992671966134026e+02
2.376840286624878354e+04,4.008642747547824570e+01,4.008642747495443359e+01,-3.599996402858912461e+02,-3.599992805717826059e+02
2.421029046736179953e+04,4.008642747548456242e+01,4.008642747497969339e+01,-3.599996468514136723e+02,-3.599992937028274014e+02
2.466039337234341292e+04,4.008642747549064467e+01,4.008642747500404369e+01,-3.599996532971018155e+02,-3.599993065942036310e+02
2.511886431509581962e+04,4.008642747549651375e+01,4.008642747502751291e+01,-3.599996596251428400e+02,-3.599993192502857369e+02
2.558585886905647931e+04,4.008642747550217678e+01,4.008642747505013659e+01,-3.599996658376841197e+02,-3.599993316753682961e+02
2.606153549998897870e+04,4.008642747550761953e+01,4.008642747507192894e+01,-3.599996719368338063e+02,-3.599993438736675557e+02
2.654605561975542150e+04,4.008642747551287755e+01,4.008642747509294679e+01,-3.599996779246613414e+02,-3.599993558493227965e+02
2.703958364108846217e+04,4.008642747551793661e+01,4.008642747511319726e+01,-3.599996838031988204e+02,-3.599993676063976409e+02
2.754228703338168634e+04,4.008642747552281094e+01,4.008642747513271587e+01,-3.599996895744408789e+02,-3.599993791488817010e+02
2.805433637951716446e+04,4.008642747552752184e+01,4.008642747515153104e+01,-3.599996952403458295e+02,-3.599993904806917158e+02
2.857590543374949630e+04,4.008642747553204799e+01,4.008642747516966409e+01,-3.599997008028364007e+02,-3.599994016056728015e+02
2.910717118066608236e+04,4.008642747553642494e+01,4.008642747518714344e+01,-3.599997062638000784e+02,-3.599994125276002137e+02
2.964831389524345286e+04,4.008642747554063135e+01,4.008642747520398331e+01,-3.599997116250899580e+02,-3.599994232501799161e+02
3.019951720402019055e+04,4.008642747554468855e+01,4.008642747522021921e+01,-3.599997168885252563e+02,-3.599994337770505126e+02
3.076096814740711488e+04,4.008642747554860364e+01,4.008642747523587246e+01,-3.599997220558919935e+02,-3.599994441117840438e+02
3.133285724315588959e+04,4.008642747555236951e+01,4.008642747525095018e+01,-3.599997271289437322e+02,-3.599994542578874643e+02
3.191537855100764864e+04,4.008642747555600749e+01,4.008642747526549499e+01,-3.599997321094017479e+02,-3.599994642188035527e+02
3.250872973854347219e+04,4.008642747555951757e+01,4.008642747527950689e+01,-3.599997369989562230e+02,-3.599994739979125029e+02
3.311311214825914794e+04,4.008642747556288555e+01,4.008642747529300721e+01,-3.599997417992663031e+02,-3.599994835985325494e+02
3.372873086588692240e+04,4.008642747556613983e+01,4.008642747530601724e+01,-3.599997465119607796e+02,-3.599994930239215591e+02
3.435579478998749983e+04,4.008642747556927333e+01,4.008642747531857253e+01,-3.599997511386388851e+02,-3.599995022772778270e+02
3.499451670283576823e+04,4.008642747557230734e+01,4.008642747533065887e+01,-3.599997556808706918e+02,-3.599995113617413267e+02
3.564511334262446326e+04,4.008642747557522057e+01,4.008642747534231177e+01,-3.599997601401973384e+02,-3.599995202803946199e+02
3.630780547701017349e+04,4.008642747557802011e+01,4.008642747535354545e+01,-3.599997645181321104e+02,-3.599995290362642208e+02
3.698281797802666551e+04,4.008642747558073438e+01,4.008642747536437412e+01,-3.599997688161605538e+02,-3.599995376323211644e+02
3.767037989839092916e+04,4.008642747558333497e+01,4.008642747537480489e+01,-3.599997730357411569e+02,-3.599995460714823707e+02
3.837072454922792531e+04,4.008642747558585029e+01,4.008642747538486617e+01,-3.599997771783057487e+02,-3.599995543566115543e+02
3.908408957924025162e+04,4.008642747558827324e+01,4.008642747539455797e+01,-3.599997812452600101e+02,-3.599995624905200771e+02
3.981071705534977082e+04,4.008642747559061092e+01,4.008642747540389450e+01,-3.599997852379839856e+02,-3.599995704759680279e+02
4.055085354483843548e+04,4.008642747559286335e+01,4.008642747541290419e+01,-3.599997891578325380e+02,-3.599995783156651328e+02
4.130475019901619089e+04,4.008642747559503050e+01,4.008642747542157991e+01,-3.599997930061358034e+02,-3.599995860122716635e+02
4.207266283844446298e+04,4.008642747559712660e+01,4.008642747542994300e+01,-3.599997967841995887e+02,-3.599995935683992343e+02
4.285485203974400793e+04,4.008642747559914454e+01,4.008642747543801477e+01,-3.599998004933059974e+02,-3.599996009866119948e+02
4.365158322401664918e+04,4.008642747560108432e+01,4.008642747544578100e+01,-3.599998041347135427e+02,-3.599996082694270285e+02
4.446312674691092980e+04,4.008642747560295305e+01,4.008642747545327012e+01,-3.599998077096578868e+02,-3.599996154193158304e+02
4.528975799036212993e+04,4.008642747560475783e+01,4.008642747546048923e+01,-3.599998112193521820e+02,-3.599996224387043640e+02
4.613175745603790710e+04,4.008642747560649866e+01,4.008642747546744545e+01,-3.599998146649873547e+02,-3.599996293299746526e+02
4.698941086052150786e+04,4.008642747560817554e+01,4.008642747547415297e+01,-3.599998180477325604e+02,-3.599996360954650640e+02
4.786300923226379382e+04,4.008642747560979558e+01,4.008642747548061891e+01,-3.599998213687356952e+02,-3.599996427374713903e+02
4.875284901033860660e+04,4.008642747561134456e+01,4.008642747548684326e+01,-3.599998246291236796e+02,-3.599996492582474161e+02
4.965923214503357303e+04,4.008642747561285091e+01,4.008642747549284735e+01,-3.599998278300029710e+02,-3.599996556600058852e+02
5.058246620031137718e+04,4.008642747561430042e+01,4.008642747549863827e+01,-3.599998309724595060e+02,-3.599996619449190121e+02
5.152286445817561616e+04,4.008642747561569308e+01,4.008642747550421603e+01,-3.599998340575598377e+02,-3.599996681151196753e+02
5.248074602497722663e+04,4.008642747561704311e+01,4.008642747550959484e+01,-3.599998370863506807e+02,-3.599996741727014182e+02
5.345643593969713402e+04,4.008642747561832920e+01,4.008642747551477470e+01,-3.599998400598598778e+02,-3.599996801197198693e+02
5.445026528424208664e+04,4.008642747561957975e+01,4.008642747551976981e+01,-3.599998429790964565e+02,-3.599996859581929129e+02
5.546257129579104367e+04,4.008642747562078057e+01,4.008642747552458019e+01,-3.599998458450509702e+02,-3.599996916901018835e+02
5.649369748123022146e+04,4.008642747562194586e+01,4.008642747552922003e+01,-3.599998486586958393e+02,-3.599996973173917354e+02
5.754399373371566617e+04,4.008642747562306141e+01,4.008642747553369645e+01,-3.599998514209859195e+02,-3.599997028419719527e+02
5.861381645140284672e+04,4.008642747562413433e+01,4.008642747553800234e+01,-3.599998541328585588e+02,-3.599997082657171745e+02
5.970352865838364960e+04,4.008642747562517883e+01,4.008642747554215902e+01,-3.599998567952339954e+02,-3.599997135904679340e+02
6.081350012787176092e+04,4.008642747562618069e+01,4.008642747554616648e+01,-3.599998594090155279e+02,-3.599997188180310559e+02
6.194410750767811260e+04,4.008642747562713993e+01,4.008642747555001762e+01,-3.599998619750901412e+02,-3.599997239501803961e+02
6.309573444801929872e+04,4.008642747562807074e+01,4.008642747555374086e+01,-3.599998644943286763e+02,-3.599997289886574094e+02
6.426877173170194146e+04,4.008642747562896602e+01,4.008642747555732910e+01,-3.599998669675859446e+02,-3.599997339351718892e+02
6.546361740672746964e+04,4.008642747562983288e+01,4.008642747556077524e+01,-3.599998693957011255e+02,-3.599997387914023079e+02
6.668067692136218830e+04,4.008642747563066422e+01,4.008642747556410768e+01,-3.599998717794982781e+02,-3.599997435589964425e+02
6.792036326171843393e+04,4.008642747563146713e+01,4.008642747556731933e+01,-3.599998741197861705e+02,-3.599997482395722841e+02
6.918309709189362184e+04,4.008642747563223452e+01,4.008642747557041019e+01,-3.599998764173589620e+02,-3.599997528347179241e+02
7.046930689671466826e+04,4.008642747563298769e+01,4.008642747557339447e+01,-3.599998786729963740e+02,-3.599997573459928049e+02
7.177942912713615806e+04,4.008642747563370534e+01,4.008642747557627217e+01,-3.599998808874637461e+02,-3.599997617749275491e+02
7.311390834834171983e+04,4.008642747563439457e+01,4.008642747557903618e+01,-3.599998830615125485e+02,-3.599997661230250969e+02
7.447319739059888525e+04,4.008642747563506248e+01,4.008642747558170782e+01,-3.599998851958804948e+02,-3.599997703917609897e+02
7.585775750291836448e+04,4.008642747563570907e+01,4.008642747558428709e+01,-3.599998872912918273e+02,-3.599997745825836546e+02
7.726805850957021175e+04,4.008642747563632724e+01,4.008642747558675978e+01,-3.599998893484576001e+02,-3.599997786969152003e+02
7.870457896950985014e+04,4.008642747563692410e+01,4.008642747558915431e+01,-3.599998913680758506e+02,-3.599997827361517011e+02
8.016780633876789943e+04,4.008642747563750675e+01,4.008642747559144937e+01,-3.599998933508319396e+02,-3.599997867016638793e+02
8.165823713585922087e+04,4.008642747563805386e+01,4.008642747559367336e+01,-3.599998952973986093e+02,-3.599997905947972185e+02
8.317637711026708712e+04,4.008642747563858677e+01,4.008642747559581210e+01,-3.599998972084364937e+02,-3.599997944168729305e+02
8.472274141405963746e+04,4.008642747563910547e+01,4.008642747559788688e+01,-3.599998990845939488e+02,-3.599997981691878408e+02
8.629785477669702959e+04,4.008642747563960285e+01,4.008642747559987640e+01,-3.599999009265076779e+02,-3.599998018530153558e+02
8.790225168308842694e+04,4.008642747564007891e+01,4.008642747560178066e+01,-3.599999027348026743e+02,-3.599998054696054055e+02
8.953647655495937215e+04,4.008642747564054076e+01,4.008642747560362807e+01,-3.599999045100926196e+02,-3.599998090201852392e+02
9.120108393559097021e+04,4.008642747564099551e+01,4.008642747560541864e+01,-3.599999062529798834e+02,-3.599998125059597101e+02
9.289663867799362924e+04,4.008642747564142184e+01,4.008642747560713104e+01,-3.599999079640558080e+02,-3.599998159281116159e+02
9.462371613657929993e+04,4.008642747564182685e+01,4.008642747560877950e+01,-3.599999096439011055e+02,-3.599998192878022110e+02
9.638290236239705700e+04,4.008642747564223185e+01,4.008642747561037112e+01,-3.599999112930857450e+02,-3.599998225861715468e+02
9.817479430199843773e+04,4.008642747564260844e+01,4.008642747561191300e+01,-3.599999129121694068e+02,-3.599998258243388705e+02
1.000000000000000000e+05,4.008642747564298503e+01,4.008642747561339092e+01,-3.599999145017014825e+02,-3.599998290034029651e+02
1.018591388054116978e+05,4.008642747564334030e+01,4.008642747561481912e+01,-3.599999160622213026e+02,-3.599998321244426052e+02
1.037528415818012581e+05,4.008642747564368847e+01,4.008642747561619757e+01,-3.599999175942584202e+02,-3.599998351885167835e+02
1.056817509213658486e+05,4.008642747564401532e+01,4.008642747561751918e+01,-3.599999190983326685e+02,-3.599998381966653938e+02
1.076465213629834907e+05,4.008642747564433506e+01,4.008642747561879816e+01,-3.599999205749545581e+02,-3.599998411499090594e+02
1.096478196143185050e+05,4.008642747564464770e+01,4.008642747562003450e+01,-3.599999220246249934e+02,-3.599998440492499867e+02
1.116863247780561214e+05,4.008642747564494613e+01,4.008642747562121400e+01,-3.599999234478359540e+02,-3.599998468956719648e+02
1.137627285823431012e+05,4.008642747564523034e+01,4.008642747562235797e+01,-3.599999248450704386e+02,-3.599998496901408771e+02
1.158777356155126181e+05,4.008642747564550746e+01,4.008642747562346642e+01,-3.599999262168025211e+02,-3.599998524336049854e+02
1.180320635651729972e+05,4.008642747564577746e+01,4.008642747562453224e+01,-3.599999275634976357e+02,-3.599998551269952145e+02
1.202264434617413208e+05,4.008642747564603326e+01,4.008642747562555542e+01,-3.599999288856128032e+02,-3.599998577712256065e+02
1.224616199265048926e+05,4.008642747564627484e+01,4.008642747562654307e+01,-3.599999301835966321e+02,-3.599998603671932642e+02
1.247383514242943202e+05,4.008642747564650932e+01,4.008642747562749520e+01,-3.599999314578896019e+02,-3.599998629157792038e+02
1.270574105208542023e+05,4.008642747564674380e+01,4.008642747562841180e+01,-3.599999327089241206e+02,-3.599998654178482411e+02
1.294195841449986328e+05,4.008642747564696407e+01,4.008642747562929998e+01,-3.599999339371246379e+02,-3.599998678742493325e+02
1.318256738556407508e+05,4.008642747564717723e+01,4.008642747563014552e+01,-3.599999351429080434e+02,-3.599998702858160868e+02
1.342764961137864157e+05,4.008642747564738329e+01,4.008642747563096975e+01,-3.599999363266833825e+02,-3.599998726533667650e+02
1.367728825595849485e+05,4.008642747564757514e+01,4.008642747563175845e+01,-3.599999374888523676e+02,-3.599998749777047351e+02
1.393156802945303498e+05,4.008642747564776698e+01,4.008642747563251874e+01,-3.599999386298094350e+02,-3.599998772596188132e+02
1.419057521689092682e+05,4.008642747564795172e+01,4.008642747563325770e+01,-3.599999397499415750e+02,-3.599998794998832636e+02
1.445439770745928108e+05,4.008642747564812936e+01,4.008642747563396114e+01,-3.599999408496291267e+02,-3.599998816992582533e+02
1.472312502432719339e+05,4.008642747564829278e+01,4.008642747563464326e+01,-3.599999419292450398e+02,-3.599998838584900795e+02
1.499684835502374044e+05,4.008642747564846331e+01,4.008642747563531117e+01,-3.599999429891557838e+02,-3.599998859783115677e+02
1.527566058238073310e+05,4.008642747564862674e+01,4.008642747563594355e+01,-3.599999440297209503e+02,-3.599998880594419575e+02
1.555965631605075032e+05,4.008642747564877595e+01,4.008642747563655462e+01,-3.599999450512937074e+02,-3.599998901025873579e+02
1.584893192461114086e+05,4.008642747564891806e+01,4.008642747563713726e+01,-3.599999460542206293e+02,-3.599998921084412018e+02
1.614358556826486893e+05,4.008642747564906728e+01,4.008642747563770570e+01,-3.599999470388420377e+02,-3.599998940776840755e+02
1.644371723214932426e+05,4.008642747564920228e+01,4.008642747563825992e+01,-3.599999480054921150e+02,-3.599998960109842301e+02
1.674942876026437734e+05,4.008642747564933728e+01,4.008642747563878572e+01,-3.599999489544988478e+02,-3.599998979089976388e+02
1.706082389003123972e+05,4.008642747564945807e+01,4.008642747563929021e+01,-3.599999498861842540e+02,-3.599998997723684511e+02
1.737800828749376233e+05,4.008642747564958597e+01,4.008642747563978759e+01,-3.599999508008644398e+02,-3.599999016017289364e+02
1.770108958317422075e+05,4.008642747564969966e+01,4.008642747564025655e+01,-3.599999516988498840e+02,-3.599999033976997680e+02
1.803017740859570040e+05,4.008642747564981335e+01,4.008642747564071129e+01,-3.599999525804452105e+02,-3.599999051608904210e+02
1.836538343348347407e+05,4.008642747564991993e+01,4.008642747564114472e+01,-3.599999534459496431e+02,-3.599999068918992862e+02
1.870682140365801461e+05,4.008642747565004072e+01,4.008642747564157105e+01,-3.599999542956567780e+02,-3.599999085913136696e+02
1.905460717963248317e+05,4.008642747565013309e+01,4.008642747564198316e+01,-3.599999551298550955e+02,-3.599999102597101910e+02
1.940885877592779580e+05,4.008642747565023257e+01,4.008642747564238107e+01,-3.599999559488275622e+02,-3.599999118976550676e+02
1.976969640111862100e+05,4.008642747565033204e+01,4.008642747564275055e+01,-3.599999567528520288e+02,-3.599999135057041144e+02
2.013724249862389406e+05,4.008642747565041731e+01,4.008642747564312003e+01,-3.599999575422014004e+02,-3.599999150844029145e+02
2.051162178825566662e+05,4.008642747565050968e+01,4.008642747564347530e+01,-3.599999583171436370e+02,-3.599999166342872172e+02
2.089296130854040966e+05,4.008642747565058784e+01,4.008642747564380926e+01,-3.599999590779414689e+02,-3.599999181558829946e+02
2.128139045982713578e+05,4.008642747565068021e+01,4.008642747564414321e+01,-3.599999598248531925e+02,-3.599999196497064418e+02
2.167704104819696222e+05,4.008642747565075126e+01,4.008642747564444875e+01,-3.599999605581322726e+02,-3.599999211162646020e+02
2.208004733018901316e+05,4.008642747565082942e+01,4.008642747564475428e+01,-3.599999612780275129e+02,-3.599999225560549689e+02
2.249054605835783004e+05,4.008642747565090048e+01,4.008642747564505271e+01,-3.599999619847831696e+02,-3.599999239695663391e+02
2.290867652767774707e+05,4.008642747565097153e+01,4.008642747564532982e+01,-3.599999626786390650e+02,-3.599999253572780731e+02
2.333458062281004386e+05,4.008642747565104258e+01,4.008642747564560693e+01,-3.599999633598307014e+02,-3.599999267196613459e+02
2.376840286624878354e+05,4.008642747565110653e+01,4.008642747564586273e+01,-3.599999640285891473e+02,-3.599999280571782379e+02
2.421029046736179735e+05,4.008642747565116338e+01,4.008642747564611852e+01,-3.599999646851413786e+02,-3.599999293702827003e+02
2.466039337234341074e+05,4.008642747565122733e+01,4.008642747564636011e+01,-3.599999653297101645e+02,-3.599999306594203858e+02
2.511886431509582035e+05,4.008642747565129127e+01,4.008642747564660169e+01,-3.599999659625142954e+02,-3.599999319250285339e+02
2.558585886905647931e+05,4.008642747565134101e+01,4.008642747564682196e+01,-3.599999665837684120e+02,-3.599999331675368239e+02
2.606153549998897652e+05,4.008642747565139786e+01,4.008642747564704223e+01,-3.599999671936833465e+02,-3.599999343873667499e+02
2.654605561975541641e+05,4.008642747565144759e+01,4.008642747564724829e+01,-3.599999677924661228e+02,-3.599999355849322455e+02
2.703958364108846290e+05,4.008642747565150444e+01,4.008642747564745434e+01,-3.599999683803198423e+02,-3.599999367606397982e+02
2.754228703338169144e+05,4.008642747565154707e+01,4.008642747564764619e+01,-3.599999689574440822e+02,-3.599999379148881644e+02
2.805433637951716082e+05,4.008642747565160391e+01,4.008642747564783804e+01,-3.599999695240346114e+02,-3.599999390480691659e+02
2.857590543374949484e+05,4.008642747565164655e+01,4.008642747564802278e+01,-3.599999700802836173e+02,-3.599999401605672915e+02
2.910717118066608091e+05,4.008642747565168918e+01,4.008642747564819331e+01,-3.599999706263799908e+02,-3.599999412527599816e+02
2.964831389524345286e+05,4.008642747565172471e+01,4.008642747564835673e+01,-3.599999711625089844e+02,-3.599999423250180257e+02
3.019951720402018982e+05,4.008642747565176734e+01,4.008642747564852726e+01,-3.599999716888525541e+02,-3.599999433777050513e+02
