wout,mag_simplified_0,mag_simplified_1,mag_simplified_2,phase_simplified_0,phase_simplified_1,phase_simplified_2
1.000000000000000021e-02,1.041149862237288382e+01,4.390898709093258745e+00,-9.588501377627116184e+00,-9.190010312306341689e+01,-9.190010312306341689e+01,-9.190010312306341689e+01
1.018591388054116906e-02,1.057131944405853119e+01,4.550719530778907895e+00,-9.428680555941468810e+00,-9.193540205689910749e+01,-9.193540205689910749e+01,-9.193540205689910749e+01
1.037528415818012723e-02,1.073113354927932761e+01,4.710533635999705204e+00,-9.268866450720672390e+00,-9.197135573581059020e+01,-9.197135573581059020e+01,-9.197135573581059020e+01
1.056817509213658565e-02,1.089094068657372105e+01,4.870340773294096870e+00,-9.109059313426278948e+00,-9.200797624669741026e+01,-9.200797624669741026e+01,-9.200797624669741026e+01
1.076465213629834890e-02,1.105074059508875095e+01,5.030140681809126768e+00,-8.949259404911250826e+00,-9.204527589631410933e+01,-9.204527589631410933e+01,-9.204527589631410933e+01
1.096478196143185063e-02,1.121053300423108112e+01,5.189933090951455164e+00,-8.789466995768918878e+00,-9.208326721508292678e+01,-9.208326721508292678e+01,-9.208326721508292678e+01
1.116863247780561230e-02,1.137031763330518785e+01,5.349717720025562784e+00,-8.629682366694812146e+00,-9.212196296096193748e+01,-9.212196296096193748e+01,-9.212196296096193748e+01
1.137627285823430978e-02,1.153009419113826795e+01,5.509494277858641986e+00,-8.469905808861733831e+00,-9.216137612336865459e+01,-9.216137612336865459e+01,-9.216137612336865459e+01
1.158777356155126122e-02,1.168986237569136399e+01,5.669262462411740700e+00,-8.310137624308636006e+00,-9.220151992715939571e+01,-9.220151992715939571e+01,-9.220151992715939571e+01
1.180320635651730017e-02,1.184962187365625397e+01,5.829021960376628897e+00,-8.150378126343746032e+00,-9.224240783666436982e+01,-9.224240783666436982e+01,-9.224240783666436982e+01
1.202264434617413176e-02,1.200937236003750641e+01,5.988772446757883117e+00,-7.990627639962493589e+00,-9.228405355977848501e+01,-9.228405355977848501e+01,-9.228405355977848501e+01
1.224616199265048978e-02,1.216911349771930517e+01,6.148513584439681878e+00,-7.830886502280693939e+00,-9.232647105210787686e+01,-9.232647105210787686e+01,-9.232647105210787686e+01
1.247383514242943192e-02,1.232884493701638107e+01,6.308245023736756885e+00,-7.671155062983618933e+00,-9.236967452117218613e+01,-9.236967452117218613e+01,-9.236967452117218613e+01
1.270574105208541887e-02,1.248856631520854243e+01,6.467966401928917364e+00,-7.511433684791458454e+00,-9.241367843066204557e+01,-9.241367843066204557e+01,-9.241367843066204557e+01
1.294195841449986319e-02,1.264827725605820774e+01,6.627677342778582670e+00,-7.351722743941792260e+00,-9.245849750475206008e+01,-9.245849750475206008e+01,-9.245849750475206008e+01
1.318256738556407466e-02,1.280797736931037178e+01,6.787377456030747602e+00,-7.192022630689628215e+00,-9.250414673246839925e+01,-9.250414673246839925e+01,-9.250414673246839925e+01
1.342764961137864199e-02,1.296766625017430563e+01,6.947066336894681449e+00,-7.032333749825695257e+00,-9.255064137211120112e+01,-9.255064137211120112e+01,-9.255064137211120112e+01
1.367728825595849670e-02,1.312734347878644137e+01,7.106743565506816296e+00,-6.872656521213559522e+00,-9.259799695573079248e+01,-9.259799695573079248e+01,-9.259799695573079248e+01
1.393156802945303557e-02,1.328700861965370628e+01,7.266408706374082982e+00,-6.712991380346292836e+00,-9.264622929365754089e+01,-9.264622929365754089e+01,-9.264622929365754089e+01
1.419057521689091883e-02,1.344666122107668116e+01,7.426061307797056976e+00,-6.553338778923319730e+00,-9.269535447908440062e+01,-9.269535447908440062e+01,-9.269535447908440062e+01
1.445439770745927249e-02,1.360630081455179941e+01,7.585700901272174335e+00,-6.393699185448200595e+00,-9.274538889270165498e+01,-9.274538889270165498e+01,-9.274538889270165498e+01
1.472312502432718793e-02,1.376592691415195091e+01,7.745327000872327616e+00,-6.234073085848047313e+00,-9.279634920738270409e+01,-9.279634920738270409e+01,-9.279634920738270409e+01
1.499684835502373276e-02,1.392553901588466481e+01,7.904939102605039736e+00,-6.074460984115335194e+00,-9.284825239292020171e+01,-9.284825239292020171e+01,-9.284825239292020171e+01
1.527566058238072171e-02,1.408513659702711962e+01,8.064536683747494550e+00,-5.914863402972879491e+00,-9.290111572081110580e+01,-9.290111572081110580e+01,-9.290111572081110580e+01
1.555965631605074270e-02,1.424471911543720815e+01,8.224119202157584851e+00,-5.755280884562794519e+00,-9.295495676908969074e+01,-9.295495676908969074e+01,-9.295495676908969074e+01
1.584893192461113431e-02,1.440428600883976351e+01,8.383686095560140217e+00,-5.595713991160236489e+00,-9.300979342720691534e+01,-9.300979342720691534e+01,-9.300979342720691534e+01
1.614358556826486074e-02,1.456383669408718440e+01,8.543236780807559327e+00,-5.436163305912817378e+00,-9.306564390095482509e+01,-9.306564390095482509e+01,-9.306564390095482509e+01
1.644371723214931372e-02,1.472337056639349662e+01,8.702770653113873323e+00,-5.276629433606503383e+00,-9.312252671743408428e+01,-9.312252671743408428e+01,-9.312252671743408428e+01
1.674942876026437252e-02,1.488288699854102859e+01,8.862287085261403519e+00,-5.117113001458973187e+00,-9.318046073006284757e+01,-9.318046073006284757e+01,-9.318046073006284757e+01
1.706082389003123548e-02,1.504238534005866512e+01,9.021785426779041828e+00,-4.957614659941334878e+00,-9.323946512362491035e+01,-9.323946512362491035e+01,-9.323946512362491035e+01
1.737800828749375484e-02,1.520186491637086590e+01,9.181265003091244381e+00,-4.798135083629134101e+00,-9.329955941935519093e+01,-9.329955941935519093e+01,-9.329955941935519093e+01
1.770108958317421002e-02,1.536132502791633669e+01,9.340725114636713400e+00,-4.638674972083665082e+00,-9.336076348005946102e+01,-9.336076348005946102e+01,-9.336076348005946102e+01
1.803017740859568993e-02,1.552076494923537098e+01,9.500165035955745907e+00,-4.479235050764630799e+00,-9.342309751526647688e+01,-9.342309751526647688e+01,-9.342309751526647688e+01
1.836538343348346342e-02,1.568018392802489203e+01,9.659584014745266956e+00,-4.319816071975109750e+00,-9.348658208640900114e+01,-9.348658208640900114e+01,-9.348658208640900114e+01
1.870682140365800480e-02,1.583958118416000005e+01,9.818981270880376755e+00,-4.160418815839999063e+00,-9.355123811203090156e+01,-9.355123811203090156e+01,-9.355123811203090156e+01
1.905460717963247327e-02,1.599895590868104911e+01,9.978355995401425815e+00,-4.001044091318951779e+00,-9.361708687301698717e+01,-9.361708687301698717e+01,-9.361708687301698717e+01
1.940885877592778141e-02,1.615830726274500151e+01,1.013770734946537644e+01,-3.841692737254999823e+00,-9.368415001784185847e+01,-9.368415001784185847e+01,-9.368415001784185847e+01
1.976969640111861035e-02,1.631763437654000626e+01,1.029703446326038474e+01,-3.682365623459991966e+00,-9.375244956783380701e+01,-9.375244956783380701e+01,-9.375244956783380701e+01
2.013724249862388488e-02,1.647693634816193864e+01,1.045633643488231357e+01,-3.523063651838062249e+00,-9.382200792244981358e+01,-9.382200792244981358e+01,-9.382200792244981358e+01
2.051162178825565591e-02,1.663621224245168406e+01,1.061561232917205899e+01,-3.363787757548315493e+00,-9.389284786455685605e+01,-9.389284786455685605e+01,-9.389284786455685605e+01
2.089296130854039965e-02,1.679546108979196362e+01,1.077486117651234210e+01,-3.204538910208034608e+00,-9.396499256571473779e+01,-9.396499256571473779e+01,-9.396499256571473779e+01
2.128139045982712155e-02,1.695468188486233885e+01,1.093408197158271200e+01,-3.045318115137662929e+00,-9.403846559145542017e+01,-9.403846559145542017e+01,-9.403846559145542017e+01
2.167704104819695443e-02,1.711387358535113634e+01,1.109327367207151305e+01,-2.886126414648862770e+00,-9.411329090655290486e+01,-9.411329090655290486e+01,-9.411329090655290486e+01
2.208004733018900309e-02,1.727303511062294916e+01,1.125243519734332232e+01,-2.726964889377054391e+00,-9.418949288027826583e+01,-9.418949288027826583e+01,-9.418949288027826583e+01
2.249054605835780485e-02,1.743216534034025500e+01,1.141156542706062993e+01,-2.567834659659744556e+00,-9.426709629163278237e+01,-9.426709629163278237e+01,-9.426709629163278237e+01
2.290867652767772725e-02,1.759126311303789336e+01,1.157066319975827184e+01,-2.408736886962104862e+00,-9.434612633455301989e+01,-9.434612633455301989e+01,-9.434612633455301989e+01
2.333458062281001943e-02,1.775032722464878887e+01,1.172972731136916735e+01,-2.249672775351211129e+00,-9.442660862308011360e+01,-9.442660862308011360e+01,-9.442660862308011360e+01
2.376840286624876120e-02,1.790935642697957775e+01,1.188875651369995623e+01,-2.090643573020420032e+00,-9.450856919648576593e+01,-9.450856919648576593e+01,-9.450856919648576593e+01
2.421029046736177665e-02,1.806834942613460981e+01,1.204774951285498830e+01,-1.931650573865390630e+00,-9.459203452434663006e+01,-9.459203452434663006e+01,-9.459203452434663006e+01
2.466039337234338796e-02,1.822730488088676637e+01,1.220670496760714308e+01,-1.772695119113235407e+00,-9.467703151155845376e+01,-9.467703151155845376e+01,-9.467703151155845376e+01
2.511886431509579784e-02,1.838622140099358404e+01,1.236562148771396252e+01,-1.613778599006415071e+00,-9.476358750328022040e+01,-9.476358750328022040e+01,-9.476358750328022040e+01
2.558585886905645132e-02,1.854509754545711075e+01,1.252449763217748746e+01,-1.454902454542889911e+00,-9.485173028979899357e+01,-9.485173028979899357e+01,-9.485173028979899357e+01
2.606153549998894980e-02,1.870393182072581695e+01,1.268333190744619365e+01,-1.296068179274183274e+00,-9.494148811130455101e+01,-9.494148811130455101e+01,-9.494148811130455101e+01
2.654605561975538486e-02,1.886272267883704501e+01,1.284212276555741994e+01,-1.137277321162956767e+00,-9.503288966256246795e+01,-9.503288966256246795e+01,-9.503288966256246795e+01
2.703958364108843479e-02,1.902146851549827034e+01,1.300086860221864704e+01,-9.785314845017268892e-01,-9.512596409747438031e+01,-9.512596409747438031e+01,-9.512596409747438031e+01
2.754228703338166065e-02,1.918016766810553619e+01,1.315956775482591468e+01,-8.198323318944618077e-01,-9.522074103351215513e+01,-9.522074103351215513e+01,-9.522074103351215513e+01
2.805433637951713216e-02,1.933881841369736776e+01,1.331821850041774624e+01,-6.611815863026303530e-01,-9.531725055601332031e+01,-9.531725055601332031e+01,-9.531725055601332031e+01
2.857590543374946557e-02,1.949741896684248843e+01,1.347681905356286336e+01,-5.025810331575134571e-01,-9.541552322232323036e+01,-9.541552322232323036e+01,-9.541552322232323036e+01
2.910717118066605269e-02,1.965596747745958339e+01,1.363536756417995832e+01,-3.440325225404173848e-01,-9.551559006576907507e+01,-9.551559006576907507e+01,-9.551559006576907507e+01
2.964831389524342359e-02,1.981446202856745487e+01,1.379386211528782979e+01,-1.855379714325465224e-01,-9.561748259945045447e+01,-9.561748259945045447e+01,-9.561748259945045447e+01
3.019951720402016052e-02,1.997290063396376070e+01,1.395230072068413918e+01,-2.709936603623719700e-02,-9.572123281982916865e+01,-9.572123281982916865e+01,-9.572123281982916865e+01
3.076096814740707924e-02,2.013128123583070561e+01,1.411068132255108054e+01,1.312812358307023919e-01,-9.582687321010129722e+01,-9.582687321010129722e+01,-9.582687321010129722e+01
3.133285724315585524e-02,2.028960170226582704e+01,1.426900178898620197e+01,2.896017022658250450e-01,-9.593443674333258286e+01,-9.593443674333258286e+01,-9.593443674333258286e+01
3.191537855100761573e-02,2.044785982473633368e+01,1.442725991145670861e+01,4.478598247363316243e-01,-9.604395688533776365e+01,-9.604395688533776365e+01,-9.604395688533776365e+01
3.250872973854343484e-02,2.060605331545511376e+01,1.458545340217549047e+01,6.060533154551130952e-01,-9.615546759728330528e+01,-9.615546759728330528e+01,-9.615546759728330528e+01
3.311311214825911342e-02,2.076417980467684643e+01,1.474357989139722136e+01,7.641798046768439878e-01,-9.626900333799164855e+01,-9.626900333799164855e+01,-9.626900333799164855e+01
3.372873086588688840e-02,2.092223683791246813e+01,1.490163692463284306e+01,9.222368379124659121e-01,-9.638459906592406412e+01,-9.638459906592406412e+01,-9.638459906592406412e+01
3.435579478998746633e-02,2.108022187306044870e+01,1.505962195978082718e+01,1.080221873060450699e+00,-9.650229024081848195e+01,-9.650229024081848195e+01,-9.650229024081848195e+01
3.499451670283573040e-02,2.123813227745320020e+01,1.521753236417357513e+01,1.238132277453198427e+00,-9.662211282495661635e+01,-9.662211282495661635e+01,-9.662211282495661635e+01
3.564511334262442793e-02,2.139596532481705538e+01,1.537536541153743208e+01,1.395965324817054931e+00,-9.674410328403378401e+01,-9.674410328403378401e+01,-9.674410328403378401e+01
3.630780547701013827e-02,2.155371819214444429e+01,1.553311827886481922e+01,1.553718192144444732e+00,-9.686829858760394529e+01,-9.686829858760394529e+01,-9.686829858760394529e+01
3.698281797802662613e-02,2.171138795647665987e+01,1.569078804319703657e+01,1.711387956476662087e+00,-9.699473620907036775e+01,-9.699473620907036775e+01,-9.699473620907036775e+01
3.767037989839089329e-02,2.186897159159599724e+01,1.584837167831637217e+01,1.868971591595997239e+00,-9.712345412519110255e+01,-9.712345412519110255e+01,-9.712345412519110255e+01
3.837072454922788034e-02,2.202646596462586004e+01,1.600586605134623852e+01,2.026465964625861815e+00,-9.725449081506762639e+01,-9.725449081506762639e+01,-9.725449081506762639e+01
3.908408957924021376e-02,2.218386783253779981e+01,1.616326791925817474e+01,2.183867832537797149e+00,-9.738788525858242906e+01,-9.738788525858242906e+01,-9.738788525858242906e+01
3.981071705534973415e-02,2.234117383856422023e+01,1.632057392528459872e+01,2.341173838564221121e+00,-9.752367693425048856e+01,-9.752367693425048856e+01,-9.752367693425051698e+01
4.055085354483839444e-02,2.249838050851601423e+01,1.647778059523638916e+01,2.498380508516014675e+00,-9.766190581644806912e+01,-9.766190581644806912e+01,-9.766190581644806912e+01
4.130475019901614503e-02,2.265548424700409669e+01,1.663488433372447517e+01,2.655484247004098464e+00,-9.780261237197966295e+01,-9.780261237197966295e+01,-9.780261237197966295e+01
4.207266283844442178e-02,2.281248133356431040e+01,1.679188142028468533e+01,2.812481333564309960e+00,-9.794583755594365471e+01,-9.794583755594365471e+01,-9.794583755594365471e+01
4.285485203974396390e-02,2.296936791868514760e+01,1.694876800540552253e+01,2.969367918685146268e+00,-9.809162280685411872e+01,-9.809162280685411872e+01,-9.809162280685411872e+01
4.365158322401661156e-02,2.312614001973797073e+01,1.710554010645834566e+01,3.126140019737968068e+00,-9.824001004097542022e+01,-9.824001004097542022e+01,-9.824001004097542022e+01
4.446312674691089289e-02,2.328279351680961540e+01,1.726219360352999033e+01,3.282793516809616285e+00,-9.839104164582386147e+01,-9.839104164582386147e+01,-9.839104164582386147e+01
4.528975799036209088e-02,2.343932414843749967e+01,1.741872423515787460e+01,3.439324148437497897e+00,-9.854476047278910755e+01,-9.854476047278910755e+01,-9.854476047278910755e+01
4.613175745603794592e-02,2.359572750724755252e+01,1.757512759396793101e+01,3.595727507247554744e+00,-9.870120982882610861e+01,-9.870120982882610861e+01,-9.870120982882610861e+01
4.698941086052155908e-02,2.375199903549564695e+01,1.773139912221602188e+01,3.751999035495647838e+00,-9.886043346716641622e+01,-9.886043346716641622e+01,-9.886043346716641622e+01
4.786300923226385201e-02,2.390813402051332659e+01,1.788753410723370152e+01,3.908134020513325257e+00,-9.902247557699558911e+01,-9.902247557699558911e+01,-9.902247557699558911e+01
4.875284901033865442e-02,2.406412759005920066e+01,1.804352767677957559e+01,4.064127590059199768e+00,-9.918738077204221781e+01,-9.918738077204221781e+01,-9.918738077204221781e+01
4.965923214503362854e-02,2.421997470757744253e+01,1.819937479429781746e+01,4.219974707577442530e+00,-9.935519407802101455e+01,-9.935519407802101455e+01,-9.935519407802101455e+01
5.058246620031139895e-02,2.437567016736537440e+01,1.835507025408574933e+01,4.375670167365374397e+00,-9.952596091887158991e+01,-9.952596091887158991e+01,-9.952596091887158991e+01
5.152286445817564481e-02,2.453120858965248985e+01,1.851060867637286478e+01,4.531208589652488072e+00,-9.969972710173203723e+01,-9.969972710173203723e+01,-9.969972710173203723e+01
5.248074602497725810e-02,2.468658441559358963e+01,1.866598450231396455e+01,4.686584415593586073e+00,-9.987653880058434197e+01,-9.987653880058434197e+01,-9.987653880058434197e+01
5.345643593969716389e-02,2.484179190217938071e+01,1.882119198889975564e+01,4.841791902179380713e+00,-1.000564425385077811e+02,-1.000564425385077811e+02,-1.000564425385077811e+02
5.445026528424212059e-02,2.499682511706814125e+01,1.897622520378851974e+01,4.996825117068143030e+00,-1.002394851684731805e+02,-1.002394851684731805e+02,-1.002394851684731805e+02
5.546257129579107437e-02,2.515167793334274293e+01,1.913107802006311786e+01,5.151677933342741156e+00,-1.004257138526104285e+02,-1.004257138526104285e+02,-1.004257138526104285e+02
5.649369748123025253e-02,2.530634402419781992e+01,1.928574411091819840e+01,5.306344024197820808e+00,-1.006151760398792874e+02,-1.006151760398792874e+02,-1.006151760398792874e+02
5.754399373371569398e-02,2.546081685756257684e+01,1.944021694428295177e+01,5.460816857562571514e+00,-1.008079194420720057e+02,-1.008079194420720057e+02,-1.008079194420720057e+02
5.861381645140287255e-02,2.561508969066515817e+01,1.959448977738553666e+01,5.615089690665158173e+00,-1.010039920080748459e+02,-1.010039920080748459e+02,-1.010039920080748459e+02
5.970352865838369355e-02,2.576915556454550682e+01,1.974855565126588175e+01,5.769155564545505044e+00,-1.012034418963143736e+02,-1.012034418963143736e+02,-1.012034418963143736e+02
6.081350012787179599e-02,2.592300729852396657e+01,1.990240738524434150e+01,5.923007298523965680e+00,-1.014063174453126521e+02,-1.014063174453126521e+02,-1.014063174453126805e+02
6.194410750767814777e-02,2.607663748463408737e+01,2.005603757135446230e+01,6.076637484634085595e+00,-1.016126671422750292e+02,-1.016126671422750292e+02,-1.016126671422750292e+02
6.309573444801933051e-02,2.623003848202852595e+01,2.020943856874890088e+01,6.230038482028525948e+00,-1.018225395896326546e+02,-1.018225395896326546e+02,-1.018225395896326546e+02
6.426877173170197910e-02,2.638320241136805322e+01,2.036260249808842815e+01,6.383202411368054996e+00,-1.020359834694618542e+02,-1.020359834694618542e+02,-1.020359834694618542e+02
6.546361740672750062e-02,2.653612114920441201e+01,2.051552123592479049e+01,6.536121149204410230e+00,-1.022530475057015735e+02,-1.022530475057015735e+02,-1.022530475057015735e+02
6.668067692136221691e-02,2.668878632236884840e+01,2.066818640908922333e+01,6.688786322368846626e+00,-1.024737804240900800e+02,-1.024737804240900800e+02,-1.024737804240900800e+02
6.792036326171846383e-02,2.684118930237904976e+01,2.082058938909942469e+01,6.841189302379050652e+00,-1.026982309097422359e+02,-1.026982309097422359e+02,-1.026982309097422075e+02
6.918309709189363055e-02,2.699332119987826673e+01,2.097272128659864165e+01,6.993321199878267613e+00,-1.029264475622891553e+02,-1.029264475622891553e+02,-1.029264475622891410e+02
7.046930689671467019e-02,2.714517285912155842e+01,2.112457294584193335e+01,7.145172859121558417e+00,-1.031584788485031510e+02,-1.031584788485031510e+02,-1.031584788485031368e+02
7.177942912713615453e-02,2.729673485252510190e+01,2.127613493924547683e+01,7.296734852525097459e+00,-1.033943730523311757e+02,-1.033943730523311757e+02,-1.033943730523311473e+02
7.311390834834172181e-02,2.744799747529582135e+01,2.142739756201619628e+01,7.447997475295819569e+00,-1.036341782222629746e+02,-1.036341782222629746e+02,-1.036341782222629462e+02
7.447319739059889143e-02,2.759895074015971517e+01,2.157835082688009010e+01,7.598950740159711614e+00,-1.038779421159612895e+02,-1.038779421159612895e+02,-1.038779421159612610e+02
7.585775750291835762e-02,2.774958437220849561e+01,2.172898445892887409e+01,7.749584372208497385e+00,-1.041257121420845237e+02,-1.041257121420845237e+02,-1.041257121420845237e+02
7.726805850957021993e-02,2.789988780388557998e+01,2.187928789060595847e+01,7.899887803885579984e+00,-1.043775352992356744e+02,-1.043775352992356744e+02,-1.043775352992356744e+02
7.870457896950984467e-02,2.804985017013358117e+01,2.202925025685395610e+01,8.049850170133579397e+00,-1.046334581119746048e+02,-1.046334581119746048e+02,-1.046334581119746048e+02
8.016780633876789686e-02,2.819946030372704726e+01,2.217886039044742219e+01,8.199460303727043708e+00,-1.048935265638362466e+02,-1.048935265638362466e+02,-1.048935265638362608e+02
8.165823713585922128e-02,2.834870673081536552e+01,2.232810681753574045e+01,8.348706730815369070e+00,-1.051577860273013272e+02,-1.051577860273013272e+02,-1.051577860273013272e+02
8.317637711026708291e-02,2.849757766670230197e+01,2.247697775342267690e+01,8.497577666702301968e+00,-1.054262811906732082e+02,-1.054262811906732082e+02,-1.054262811906732082e+02
8.472274141405965187e-02,2.864606101188988418e+01,2.262546109861026622e+01,8.646061011889887737e+00,-1.056990559818205213e+02,-1.056990559818205213e+02,-1.056990559818205213e+02
8.629785477669701943e-02,2.879414434841601533e+01,2.277354443513639026e+01,8.794144348416013557e+00,-1.059761534887532832e+02,-1.059761534887532832e+02,-1.059761534887532832e+02
8.790225168308841985e-02,2.894181493651632664e+01,2.292121502323670157e+01,8.941814936516323087e+00,-1.062576158770084476e+02,-1.062576158770084476e+02,-1.062576158770084476e+02
8.953647655495937385e-02,2.908905971164239190e+01,2.306845979836276683e+01,9.089059711642390127e+00,-1.065434843038299562e+02,-1.065434843038299562e+02,-1.065434843038299846e+02
9.120108393559096804e-02,2.923586528186977418e+01,2.321526536859014911e+01,9.235865281869774179e+00,-1.068337988291399370e+02,-1.068337988291399370e+02,-1.068337988291399370e+02
9.289663867799362318e-02,2.938221792573060043e+01,2.336161801245097891e+01,9.382217925730602204e+00,-1.071285983233070880e+02,-1.071285983233070880e+02,-1.071285983233070880e+02
9.462371613657930003e-02,2.952810359050685918e+01,2.350750367722724121e+01,9.528103590506862730e+00,-1.074279203717331512e+02,-1.074279203717331512e+02,-1.074279203717331512e+02
9.638290236239706321e-02,2.967350789102177799e+01,2.365290797774216003e+01,9.673507891021779770e+00,-1.077318011762895935e+02,-1.077318011762895935e+02,-1.077318011762895935e+02
9.817479430199843593e-02,2.981841610896774597e+01,2.379781619568812090e+01,9.818416108967744194e+00,-1.080402754536532086e+02,-1.080402754536532086e+02,-1.080402754536532086e+02
1.000000000000000056e-01,2.996281319281052191e+01,2.394221327953090039e+01,9.962813192810521912e+00,-1.083533763306036235e+02,-1.083533763306036235e+02,-1.083533763306036235e+02
1.018591388054116975e-01,3.010668375831029309e+01,2.408608384503066802e+01,1.010668375831029309e+01,-1.086711352363638952e+02,-1.086711352363638952e+02,-1.086711352363638952e+02
1.037528415818012584e-01,3.025001208970112287e+01,2.422941217642149780e+01,1.025001208970112287e+01,-1.089935817920823808e+02,-1.089935817920823808e+02,-1.089935817920823808e+02
1.056817509213658496e-01,3.039278214157102198e+01,2.437218222829139691e+01,1.039278214157101843e+01,-1.093207436975742013e+02,-1.093207436975742013e+02,-1.093207436975742013e+02
1.076465213629834994e-01,3.053497754148545340e+01,2.451437762820582833e+01,1.053497754148545518e+01,-1.096526466154605828e+02,-1.096526466154605828e+02,-1.096526466154605828e+02
1.096478196143185202e-01,3.067658159339753610e+01,2.465598168011791103e+01,1.067658159339753610e+01,-1.099893140528658364e+02,-1.099893140528658364e+02,-1.099893140528658364e+02
1.116863247780561230e-01,3.081757728188826562e+01,2.479697736860864410e+01,1.081757728188826562e+01,-1.103307672408547830e+02,-1.103307672408547830e+02,-1.103307672408547830e+02
1.137627285823430978e-01,3.095794727728025109e+01,2.493734736400062602e+01,1.095794727728024931e+01,-1.106770250118165109e+02,-1.106770250118165109e+02,-1.106770250118165109e+02
1.158777356155126226e-01,3.109767394166798127e+01,2.507707402838835620e+01,1.109767394166797772e+01,-1.110281036750256618e+02,-1.110281036750256618e+02,-1.110281036750256618e+02
1.180320635651729844e-01,3.123673933590727003e+01,2.521613942262764496e+01,1.123673933590726826e+01,-1.113840168906372980e+02,-1.113840168906372980e+02,-1.113840168906373265e+02
1.202264434617413141e-01,3.137512522760558653e+01,2.535452531432596146e+01,1.137512522760558475e+01,-1.117447755423982727e+02,-1.117447755423982727e+02,-1.117447755423982869e+02
1.224616199265049082e-01,3.151281310015386694e+01,2.549221318687424187e+01,1.151281310015386339e+01,-1.121103876093849578e+02,-1.121103876093849578e+02,-1.121103876093849721e+02
1.247383514242943192e-01,3.164978416283892670e+01,2.562918424955930163e+01,1.164978416283892670e+01,-1.124808580371043689e+02,-1.124808580371043689e+02,-1.124808580371043973e+02
1.270574105208542026e-01,3.178601936207380874e+01,2.576541944879418367e+01,1.178601936207380874e+01,-1.128561886083244445e+02,-1.128561886083244445e+02,-1.128561886083244730e+02
1.294195841449986284e-01,3.192149939378098011e+01,2.590089948050135504e+01,1.192149939378098011e+01,-1.132363778140266248e+02,-1.132363778140266248e+02,-1.132363778140266533e+02
1.318256738556407293e-01,3.205620471696099116e+01,2.603560480368136609e+01,1.205620471696098939e+01,-1.136214207249027481e+02,-1.136214207249027481e+02,-1.136214207249027766e+02
1.342764961137864199e-01,3.219011556847586064e+01,2.616951565519624268e+01,1.219011556847586597e+01,-1.140113088638459544e+02,-1.140113088638459544e+02,-1.140113088638459828e+02
1.367728825595849462e-01,3.232321197907322130e+01,2.630261206579359268e+01,1.232321197907321775e+01,-1.144060300799131369e+02,-1.144060300799131369e+02,-1.144060300799131937e+02
1.393156802945303419e-01,3.245547379067312477e+01,2.643487387739349970e+01,1.245547379067312477e+01,-1.148055684242632140e+02,-1.148055684242632140e+02,-1.148055684242632566e+02
1.419057521689092716e-01,3.258688067493538654e+01,2.656628076165576147e+01,1.258688067493538298e+01,-1.152099040286013150e+02,-1.152099040286013150e+02,-1.152099040286013150e+02
1.445439770745927111e-01,3.271741215312001572e+01,2.669681223984039065e+01,1.271741215312001572e+01,-1.156190129866842824e+02,-1.156190129866842824e+02,-1.156190129866843392e+02
1.472312502432718551e-01,3.284704761724857747e+01,2.682644770396895240e+01,1.284704761724857924e+01,-1.160328672394656166e+02,-1.160328672394656166e+02,-1.160328672394656593e+02
1.499684835502373137e-01,3.297576635256804423e+01,2.695516643928842626e+01,1.297576635256804778e+01,-1.164514344644782824e+02,-1.164514344644782824e+02,-1.164514344644782824e+02
1.527566058238072344e-01,3.310354756131294351e+01,2.708294764803332200e+01,1.310354756131294529e+01,-1.168746779700748846e+02,-1.168746779700748846e+02,-1.168746779700748846e+02
1.555965631605074340e-01,3.323037038775463259e+01,2.720977047447501107e+01,1.323037038775463259e+01,-1.173025565951591460e+02,-1.173025565951591460e+02,-1.173025565951591460e+02
1.584893192461113431e-01,3.335621394451975164e+01,2.733561403124012301e+01,1.335621394451974631e+01,-1.177350246150566022e+02,-1.177350246150566022e+02,-1.177350246150566022e+02
1.614358556826486213e-01,3.348105734015222623e+01,2.746045742687260116e+01,1.348105734015222623e+01,-1.181720316541829874e+02,-1.181720316541829874e+02,-1.181720316541829874e+02
1.644371723214931580e-01,3.360487970788565093e+01,2.758427979460602586e+01,1.360487970788564915e+01,-1.186135226061744703e+02,-1.186135226061744703e+02,-1.186135226061744703e+02
1.674942876026437322e-01,3.372766023558435222e+01,2.770706032230473426e+01,1.372766023558435755e+01,-1.190594375621467123e+02,-1.190594375621467123e+02,-1.190594375621467691e+02
1.706082389003123478e-01,3.384937819680361315e+01,2.782877828352399163e+01,1.384937819680361670e+01,-1.195097117477479429e+02,-1.195097117477479429e+02,-1.195097117477479429e+02
1.737800828749375415e-01,3.397001298291024796e+01,2.794941306963062644e+01,1.397001298291025151e+01,-1.199642754696633062e+02,-1.199642754696633062e+02,-1.199642754696633062e+02
1.770108958317421211e-01,3.408954413619652257e+01,2.806894422291689395e+01,1.408954413619651902e+01,-1.204230540722185907e+02,-1.204230540722185907e+02,-1.204230540722186475e+02
1.803017740859569062e-01,3.420795138391102341e+01,2.818735147063140190e+01,1.420795138391102341e+01,-1.208859679047117055e+02,-1.208859679047117055e+02,-1.208859679047117481e+02
1.836538343348346480e-01,3.432521467312162855e+01,2.830461475984200348e+01,1.432521467312162500e+01,-1.213529323000799707e+02,-1.213529323000799707e+02,-1.213529323000800133e+02
1.870682140365800550e-01,3.444131420631637752e+01,2.842071429303675245e+01,1.444131420631637752e+01,-1.218238575654829390e+02,-1.218238575654829390e+02,-1.218238575654829958e+02
1.905460717963247397e-01,3.455623047763980082e+01,2.853563056436017575e+01,1.455623047763979727e+01,-1.222986489853462473e+02,-1.222986489853462473e+02,-1.222986489853462473e+02
1.940885877592778419e-01,3.466994430965336704e+01,2.864934439637373842e+01,1.466994430965336704e+01,-1.227772068373728160e+02,-1.227772068373728160e+02,-1.227772068373728729e+02
1.976969640111860826e-01,3.478243689050077592e+01,2.876183697722115085e+01,1.478243689050077414e+01,-1.232594264219831643e+02,-1.232594264219831643e+02,-1.232594264219832070e+02
2.013724249862388627e-01,3.489368981135096703e+01,2.887308989807134552e+01,1.489368981135097059e+01,-1.237451981055934311e+02,-1.237451981055934311e+02,-1.237451981055934311e+02
2.051162178825565729e-01,3.500368510398445920e+01,2.898308519070483058e+01,1.500368510398445387e+01,-1.242344073780853080e+02,-1.242344073780853080e+02,-1.242344073780853648e+02
2.089296130854039757e-01,3.511240527838196357e+01,2.909180536510233850e+01,1.511240527838196179e+01,-1.247269349247585097e+02,-1.247269349247585097e+02,-1.247269349247585097e+02
2.128139045982712363e-01,3.521983336016843680e+01,2.919923344688880817e+01,1.521983336016843325e+01,-1.252226567129885240e+02,-1.252226567129885240e+02,-1.252226567129885666e+02
2.167704104819695166e-01,3.532595292776031926e+01,2.930535301448070129e+01,1.532595292776032281e+01,-1.257214440937423205e+02,-1.257214440937423205e+02,-1.257214440937423205e+02
2.208004733018900378e-01,3.543074814905980219e+01,2.941014823578017712e+01,1.543074814905980219e+01,-1.262231639180247669e+02,-1.262231639180247669e+02,-1.262231639180248237e+02
2.249054605835781873e-01,3.553420381753632284e+01,2.951360390425669777e+01,1.553420381753632284e+01,-1.267276786682520253e+02,-1.267276786682520253e+02,-1.267276786682520253e+02
2.290867652767773488e-01,3.563630538753369592e+01,2.961570547425407796e+01,1.563630538753369947e+01,-1.272348466044603015e+02,-1.272348466044603015e+02,-1.272348466044603015e+02
2.333458062281003331e-01,3.573703900863983307e+01,2.971643909536020445e+01,1.573703900863982774e+01,-1.277445219251757607e+02,-1.277445219251757607e+02,-1.277445219251757607e+02
2.376840286624877230e-01,3.583639155895620831e+01,2.981579164567658324e+01,1.583639155895620654e+01,-1.282565549426803386e+02,-1.282565549426803386e+02,-1.282565549426803386e+02
2.421029046736178914e-01,3.593435067710582587e+01,2.991375076382620435e+01,1.593435067710583120e+01,-1.287707922723199658e+02,-1.287707922723199658e+02,-1.287707922723199658e+02
2.466039337234340045e-01,3.603090479282052172e+01,3.001030487954090020e+01,1.603090479282052172e+01,-1.292870770354124659e+02,-1.292870770354124659e+02,-1.292870770354124659e+02
2.511886431509580686e-01,3.612604315595272908e+01,3.010544324267310756e+01,1.612604315595272908e+01,-1.298052490752221502e+02,-1.298052490752221502e+02,-1.298052490752221786e+02
2.558585886905645479e-01,3.621975586376190392e+01,3.019915595048228241e+01,1.621975586376190748e+01,-1.303251451853813592e+02,-1.303251451853813592e+02,-1.303251451853813876e+02
2.606153549998895258e-01,3.631203388633213081e+01,3.029143397305251284e+01,1.631203388633213436e+01,-1.308465993500533386e+02,-1.308465993500533386e+02,-1.308465993500533955e+02
2.654605561975538763e-01,3.640286908998525917e+01,3.038226917670563410e+01,1.640286908998525917e+01,-1.313694429950494111e+02,-1.313694429950494111e+02,-1.313694429950494111e+02
2.703958364108843271e-01,3.649225425856280935e+01,3.047165434528318784e+01,1.649225425856280935e+01,-1.318935052490347744e+02,-1.318935052490347744e+02,-1.318935052490347744e+02
2.754228703338166273e-01,3.658018311246001275e+01,3.055958319918039123e+01,1.658018311246001275e+01,-1.324186132138852656e+02,-1.324186132138852656e+02,-1.324186132138852656e+02
2.805433637951713077e-01,3.666665032530634960e+01,3.064605041202672453e+01,1.666665032530634960e+01,-1.329445922431897600e+02,-1.329445922431897600e+02,-1.329445922431897600e+02
2.857590543374946557e-01,3.675165153819932584e+01,3.073105162491970077e+01,1.675165153819932584e+01,-1.334712662278329276e+02,-1.334712662278329276e+02,-1.334712662278329276e+02
2.910717118066605269e-01,3.683518337141107679e+01,3.081458345813144817e+01,1.683518337141106969e+01,-1.339984578875400985e+02,-1.339984578875400985e+02,-1.339984578875400985e+02
2.964831389524342220e-01,3.691724343350126958e+01,3.089664352022164451e+01,1.691724343350126958e+01,-1.345259890672209622e+02,-1.345259890672209622e+02,-1.345259890672210190e+02
3.019951720402015982e-01,3.699783032778438496e+01,3.097723041450475634e+01,1.699783032778438141e+01,-1.350536810369123657e+02,-1.350536810369123657e+02,-1.350536810369123657e+02
3.076096814740708063e-01,3.707694365611400400e+01,3.105634374283437893e+01,1.707694365611400400e+01,-1.355813547940925332e+02,-1.355813547940925332e+02,-1.355813547940925332e+02
3.133285724315585385e-01,3.715458401996264115e+01,3.113398410668302319e+01,1.715458401996264470e+01,-1.361088313671220646e+02,-1.361088313671220646e+02,-1.361088313671220646e+02
3.191537855100761711e-01,3.723075301879070764e+01,3.121015310551108612e+01,1.723075301879071120e+01,-1.366359321185573208e+02,-1.366359321185573208e+02,-1.366359321185573776e+02
3.250872973854344039e-01,3.730545324571402688e+01,3.128485333243439825e+01,1.730545324571402332e+01,-1.371624790470826554e+02,-1.371624790470826554e+02,-1.371624790470827122e+02
3.311311214825911065e-01,3.737868828049487036e+01,3.135808836721524884e+01,1.737868828049487036e+01,-1.376882950868195223e+02,-1.376882950868195223e+02,-1.376882950868195508e+02
3.372873086588689118e-01,3.745046267989668820e+01,3.142986276661707024e+01,1.745046267989669175e+01,-1.382132044027900690e+02,-1.382132044027900690e+02,-1.382132044027900690e+02
3.435579478998746494e-01,3.752078196545747346e+01,3.150018205217784839e+01,1.752078196545746991e+01,-1.387370326813419865e+02,-1.387370326813419865e+02,-1.387370326813419865e+02
3.499451670283573179e-01,3.758965260875123704e+01,3.156905269547161552e+01,1.758965260875123704e+01,-1.392596074143797580e+02,-1.392596074143797580e+02,-1.392596074143797864e+02
3.564511334262442932e-01,3.765708201422073387e+01,3.163648210094111235e+01,1.765708201422073387e+01,-1.397807581762944267e+02,-1.397807581762944267e+02,-1.397807581762944835e+02
3.630780547701014105e-01,3.772307849967712912e+01,3.170247858639750760e+01,1.772307849967712912e+01,-1.403003168925377793e+02,-1.403003168925377793e+02,-1.403003168925377793e+02
3.698281797802662751e-01,3.778765127457472062e+01,3.176705136129509555e+01,1.778765127457471706e+01,-1.408181180988494248e+02,-1.408181180988494248e+02,-1.408181180988494816e+02
3.767037989839089884e-01,3.785081041617940656e+01,3.183021050289978504e+01,1.785081041617940656e+01,-1.413339991902130635e+02,-1.413339991902130635e+02,-1.413339991902130635e+02
3.837072454922788589e-01,3.791256684375960617e+01,3.189196693047998110e+01,1.791256684375960617e+01,-1.418478006586916251e+02,-1.418478006586916251e+02,-1.418478006586916820e+02
3.908408957924021099e-01,3.797293229093700262e+01,3.195233237765737755e+01,1.797293229093699907e+01,-1.423593663193713326e+02,-1.423593663193713326e+02,-1.423593663193713326e+02
3.981071705534973137e-01,3.803191927634186698e+01,3.201131936306224901e+01,1.803191927634187053e+01,-1.428685435237247816e+02,-1.428685435237247816e+02,-1.428685435237247816e+02
4.055085354483839444e-01,3.808954107272404599e+01,3.206894115944442092e+01,1.808954107272404244e+01,-1.433751833597926009e+02,-1.433751833597926009e+02,-1.433751833597926293e+02
4.130475019901613809e-01,3.814581167467535749e+01,3.212521176139573953e+01,1.814581167467536105e+01,-1.438791408386678654e+02,-1.438791408386678654e+02,-1.438791408386678654e+02
4.207266283844441901e-01,3.820074576512316611e+01,3.218014585184354104e+01,1.820074576512316256e+01,-1.443802750668585873e+02,-1.443802750668585873e+02,-1.443802750668586441e+02
4.285485203974396251e-01,3.825435868075665979e+01,3.223375876747703472e+01,1.825435868075665979e+01,-1.448784494041934749e+02,-1.448784494041934749e+02,-1.448784494041934749e+02
4.365158322401661573e-01,3.830666637654910289e+01,3.228606646326947782e+01,1.830666637654910645e+01,-1.453735316070239776e+02,-1.453735316070239776e+02,-1.453735316070239776e+02
4.446312674691088040e-01,3.835768538953853124e+01,3.233708547625890617e+01,1.835768538953852769e+01,-1.458653939565650148e+02,-1.458653939565650148e+02,-1.458653939565650717e+02
4.528975799036208949e-01,3.840743280202850940e+01,3.238683288874888433e+01,1.840743280202850585e+01,-1.463539133723020882e+02,-1.463539133723020882e+02,-1.463539133723020882e+02
4.613175745603795286e-01,3.845592620436798370e+01,3.243532629108835863e+01,1.845592620436799081e+01,-1.468389715104749200e+02,-1.468389715104749200e+02,-1.468389715104749484e+02
4.698941086052153548e-01,3.850318365746566229e+01,3.248258374418603722e+01,1.850318365746566229e+01,-1.473204548477294225e+02,-1.473204548477294225e+02,-1.473204548477294793e+02
4.786300923226382564e-01,3.854922365519006888e+01,3.252862374191044381e+01,1.854922365519006888e+01,-1.477982547501030126e+02,-1.477982547501030126e+02,-1.477982547501030126e+02
4.875284901033862806e-01,3.859406508680122272e+01,3.257346517352159765e+01,1.859406508680121561e+01,-1.482722675275813629e+02,-1.482722675275813629e+02,-1.482722675275814197e+02
4.965923214503361049e-01,3.863772719955341017e+01,3.261712728627379221e+01,1.863772719955341017e+01,-1.487423944745312951e+02,-1.487423944745312951e+02,-1.487423944745312951e+02
5.058246620031140450e-01,3.868022956160226755e+01,3.265962964832264959e+01,1.868022956160227110e+01,-1.492085418963732195e+02,-1.492085418963732195e+02,-1.492085418963732764e+02
5.152286445817564342e-01,3.872159202534147227e+01,3.270099211206185430e+01,1.872159202534147227e+01,-1.496706211229159180e+02,-1.496706211229159180e+02,-1.496706211229159180e+02
5.248074602497725394e-01,3.876183469128703507e+01,3.274123477800741000e+01,1.876183469128703507e+01,-1.501285485088223197e+02,-1.501285485088223197e+02,-1.501285485088223197e+02
5.345643593969716667e-01,3.880097787261845355e+01,3.278037795933882848e+01,1.880097787261844999e+01,-1.505822454217231154e+02,-1.505822454217231154e+02,-1.505822454217231154e+02
5.445026528424211643e-01,3.883904206047774466e+01,3.281844214719811959e+01,1.883904206047774466e+01,-1.510316382185295367e+02,-1.510316382185295367e+02,-1.510316382185295936e+02
5.546257129579107437e-01,3.887604789011852802e+01,3.285544797683890295e+01,1.887604789011852802e+01,-1.514766582105326336e+02,-1.514766582105326336e+02,-1.514766582105326904e+02
5.649369748123025392e-01,3.891201610798828625e+01,3.289141619470866118e+01,1.891201610798828270e+01,-1.519172416179002312e+02,-1.519172416179002312e+02,-1.519172416179002312e+02
5.754399373371569260e-01,3.894696753981835968e+01,3.292636762653873461e+01,1.894696753981835968e+01,-1.523533295142058250e+02,-1.523533295142058250e+02,-1.523533295142058250e+02
5.861381645140287810e-01,3.898092305978698846e+01,3.296032314650736339e+01,1.898092305978698846e+01,-1.527848677616389637e+02,-1.527848677616389637e+02,-1.527848677616389637e+02
5.970352865838368661e-01,3.901390356081221000e+01,3.299330364753258493e+01,1.901390356081220290e+01,-1.532118069375563323e+02,-1.532118069375563323e+02,-1.532118069375563891e+02
6.081350012787178905e-01,3.904592992602264445e+01,3.302533001274302649e+01,1.904592992602264445e+01,-1.536341022530400551e+02,-1.536341022530400551e+02,-1.536341022530400835e+02
6.194410750767814777e-01,3.907702300144607932e+01,3.305642308816645425e+01,1.907702300144608643e+01,-1.540517134641293069e+02,-1.540517134641293069e+02,-1.540517134641293069e+02
6.309573444801933606e-01,3.910720356994738722e+01,3.308660365666776215e+01,1.910720356994738367e+01,-1.544646047763889669e+02,-1.544646047763889669e+02,-1.544646047763889669e+02
6.426877173170196800e-01,3.913649232643984988e+01,3.311589241316022481e+01,1.913649232643984988e+01,-1.548727447434717988e+02,-1.548727447434717988e+02,-1.548727447434718556e+02
6.546361740672750340e-01,3.916490985438655770e+01,3.314430994110693263e+01,1.916490985438655770e+01,-1.552761061603194150e+02,-1.552761061603194150e+02,-1.552761061603194719e+02
6.668067692136222524e-01,3.919247660360129970e+01,3.317187669032168174e+01,1.919247660360129970e+01,-1.556746659516335853e+02,-1.556746659516335853e+02,-1.556746659516336422e+02
6.792036326171846383e-01,3.921921286935230455e+01,3.319861295607268659e+01,1.921921286935230455e+01,-1.560684050562325922e+02,-1.560684050562325922e+02,-1.560684050562325922e+02
6.918309709189366385e-01,3.924513877276559981e+01,3.322453885948597474e+01,1.924513877276559626e+01,-1.564573083078878426e+02,-1.564573083078878426e+02,-1.564573083078878426e+02
7.046930689671468961e-01,3.927027424251944865e+01,3.324967432923982358e+01,1.927027424251944865e+01,-1.568413643132141715e+02,-1.568413643132141715e+02,-1.568413643132142283e+02
7.177942912713618506e-01,3.929463899781598712e+01,3.327403908453636916e+01,1.929463899781598357e+01,-1.572205653271640244e+02,-1.572205653271640244e+02,-1.572205653271640244e+02
7.311390834834176067e-01,3.931825253261143160e+01,3.329765261933181364e+01,1.931825253261143160e+01,-1.575949071266502131e+02,-1.575949071266502131e+02,-1.575949071266502415e+02
7.447319739059892196e-01,3.934113410108203368e+01,3.332053418780240861e+01,1.934113410108203723e+01,-1.579643888827971807e+02,-1.579643888827971807e+02,-1.579643888827972376e+02
7.585775750291839925e-01,3.936330270429911593e+01,3.334270279101949086e+01,1.936330270429911593e+01,-1.583290130322913853e+02,-1.583290130322913853e+02,-1.583290130322914422e+02
7.726805850957025879e-01,3.938477707808311123e+01,3.336417716480348616e+01,1.938477707808310768e+01,-1.586887851482758265e+02,-1.586887851482758265e+02,-1.586887851482758833e+02
7.870457896950989740e-01,3.940557568200357252e+01,3.338497576872394745e+01,1.940557568200357608e+01,-1.590437138112043556e+02,-1.590437138112043556e+02,-1.590437138112044124e+02
8.016780633876793294e-01,3.942571668948974661e+01,3.340511677621012154e+01,1.942571668948974661e+01,-1.593938104800437827e+02,-1.593938104800437827e+02,-1.593938104800437827e+02
8.165823713585927957e-01,3.944521797901379756e+01,3.342461806573417249e+01,1.944521797901379401e+01,-1.597390893641830587e+02,-1.597390893641830587e+02,-1.597390893641830587e+02
8.317637711026708569e-01,3.946409712630746469e+01,3.344349721302784673e+01,1.946409712630746824e+01,-1.600795672963816969e+02,-1.600795672963816969e+02,-1.600795672963817537e+02
8.472274141405963244e-01,3.948237139757119962e+01,3.346177148429158166e+01,1.948237139757120673e+01,-1.604152636070614903e+02,-1.604152636070614903e+02,-1.604152636070614903e+02
8.629785477669702498e-01,3.950005774363381761e+01,3.347945783035419254e+01,1.950005774363381761e+01,-1.607462000002180673e+02,-1.607462000002180673e+02,-1.607462000002181242e+02
8.790225168308842818e-01,3.951717279501995961e+01,3.349657288174033454e+01,1.951717279501995961e+01,-1.610724004312051818e+02,-1.610724004312051818e+02,-1.610724004312052386e+02
8.953647655495936553e-01,3.953373285788228486e+01,3.351313294460265979e+01,1.953373285788228486e+01,-1.613938909866155029e+02,-1.613938909866155029e+02,-1.613938909866155029e+02
9.120108393559096527e-01,3.954975391075484481e+01,3.352915399747521974e+01,1.954975391075484481e+01,-1.617106997664606070e+02,-1.617106997664606070e+02,-1.617106997664606638e+02
9.289663867799362595e-01,3.956525160208426684e+01,3.354465168880464176e+01,1.956525160208426684e+01,-1.620228567688275803e+02,-1.620228567688275803e+02,-1.620228567688275803e+02
9.462371613657929448e-01,3.958024124849573866e+01,3.355964133521611359e+01,1.958024124849573511e+01,-1.623303937771671883e+02,-1.623303937771671883e+02,-1.623303937771671883e+02
9.638290236239704933e-01,3.959473783375086953e+01,3.357413792047124446e+01,1.959473783375086242e+01,-1.626333442503487277e+02,-1.626333442503487277e+02,-1.626333442503487277e+02
9.817479430199843593e-01,3.960875600835547061e+01,3.358815609507584554e+01,1.960875600835547061e+01,-1.629317432155946221e+02,-1.629317432155946221e+02,-1.629317432155946790e+02
1.000000000000000000e+00,3.962231008977587976e+01,3.360171017649625469e+01,1.962231008977587976e+01,-1.632256271643902039e+02,-1.632256271643902039e+02,-1.632256271643902608e+02
1.018591388054116864e+00,3.963541406322333671e+01,3.361481414994371875e+01,1.963541406322333671e+01,-1.635150339514454743e+02,-1.635150339514454743e+02,-1.635150339514454743e+02
1.037528415818012695e+00,3.964808158296705187e+01,3.362748166968742680e+01,1.964808158296705187e+01,-1.638000026967692122e+02,-1.638000026967692122e+02,-1.638000026967692122e+02
1.056817509213658468e+00,3.966032597413762062e+01,3.363972606085799555e+01,1.966032597413762062e+01,-1.640805736909005077e+02,-1.640805736909005077e+02,-1.640805736909005645e+02
1.076465213629834938e+00,3.967216023498369282e+01,3.365156032170406775e+01,1.967216023498369637e+01,-1.643567883033280452e+02,-1.643567883033280452e+02,-1.643567883033281021e+02
1.096478196143185091e+00,3.968359703954602935e+01,3.366299712626641139e+01,1.968359703954602935e+01,-1.646286888941131963e+02,-1.646286888941131963e+02,-1.646286888941132531e+02
1.116863247780561119e+00,3.969464874071444171e+01,3.367404882743481664e+01,1.969464874071444527e+01,-1.648963187287234575e+02,-1.648963187287234575e+02,-1.648963187287234575e+02
1.137627285823431089e+00,3.970532737363446785e+01,3.368472746035484278e+01,1.970532737363446074e+01,-1.651597218960684472e+02,-1.651597218960684472e+02,-1.651597218960685041e+02
1.158777356155126226e+00,3.971564465943193056e+01,3.369504474615230549e+01,1.971564465943192701e+01,-1.654189432297224585e+02,-1.654189432297224585e+02,-1.654189432297225153e+02
1.180320635651729733e+00,3.972561200922518765e+01,3.370501209594556258e+01,1.972561200922519120e+01,-1.656740282323076769e+02,-1.656740282323076769e+02,-1.656740282323077338e+02
1.202264434617413169e+00,3.973524052839593423e+01,3.371464061511631627e+01,1.973524052839593779e+01,-1.659250230030039290e+02,-1.659250230030039290e+02,-1.659250230030039290e+02
1.224616199265048833e+00,3.974454102109113052e+01,3.372394110781151255e+01,1.974454102109113407e+01,-1.661719741681432652e+02,-1.661719741681432652e+02,-1.661719741681432652e+02
1.247383514242943248e+00,3.975352399492996369e+01,3.373292408165033862e+01,1.975352399492996724e+01,-1.664149288148420567e+02,-1.664149288148420567e+02,-1.664149288148421135e+02
1.270574105208541971e+00,3.976219966589105326e+01,3.374159975261142819e+01,1.976219966589105326e+01,-1.666539344276154111e+02,-1.666539344276154111e+02,-1.666539344276154395e+02
1.294195841449986339e+00,3.977057796335658679e+01,3.374997805007696172e+01,1.977057796335658679e+01,-1.668890388279158969e+02,-1.668890388279158969e+02,-1.668890388279158969e+02
1.318256738556407237e+00,3.977866853529140201e+01,3.375806862201177694e+01,1.977866853529139846e+01,-1.671202901165329990e+02,-1.671202901165329990e+02,-1.671202901165329990e+02
1.342764961137864255e+00,3.978648075353629565e+01,3.376588084025667058e+01,1.978648075353629565e+01,-1.673477366187860014e+02,-1.673477366187860014e+02,-1.673477366187860014e+02
1.367728825595849518e+00,3.979402371919619696e+01,3.377342380591657189e+01,1.979402371919619341e+01,-1.675714268324404088e+02,-1.675714268324404088e+02,-1.675714268324404088e+02
1.393156802945303863e+00,3.980130626810500161e+01,3.378070635482537654e+01,1.980130626810500161e+01,-1.677914093782747500e+02,-1.677914093782747500e+02,-1.677914093782747500e+02
1.419057521689092605e+00,3.980833697635023327e+01,3.378773706307060820e+01,1.980833697635023327e+01,-1.680077329532232113e+02,-1.680077329532232113e+02,-1.680077329532232113e+02
1.445439770745927888e+00,3.981512416584157421e+01,3.379452425256194914e+01,1.981512416584157421e+01,-1.682204462860174488e+02,-1.682204462860174488e+02,-1.682204462860175056e+02
1.472312502432719494e+00,3.982167590990880512e+01,3.380107599662918005e+01,1.982167590990880512e+01,-1.684295980952507250e+02,-1.684295980952507250e+02,-1.684295980952507819e+02
1.499684835502373748e+00,3.982800003891541252e+01,3.380740012563578745e+01,1.982800003891541252e+01,-1.686352370497843935e+02,-1.686352370497843935e+02,-1.686352370497843935e+02
1.527566058238073232e+00,3.983410414587540060e+01,3.381350423259577553e+01,1.983410414587540416e+01,-1.688374117314200475e+02,-1.688374117314200475e+02,-1.688374117314200475e+02
1.555965631605074950e+00,3.983999559206169749e+01,3.381939567878207242e+01,1.983999559206169749e+01,-1.690361705997571278e+02,-1.690361705997571278e+02,-1.690361705997571278e+02
1.584893192461114264e+00,3.984568151259553304e+01,3.382508159931590797e+01,1.984568151259553659e+01,-1.692315619591578866e+02,-1.692315619591578866e+02,-1.692315619591579434e+02
1.614358556826487101e+00,3.985116882200711075e+01,3.383056890872748568e+01,1.985116882200711075e+01,-1.694236339277417187e+02,-1.694236339277417187e+02,-1.694236339277417187e+02
1.644371723214932413e+00,3.985646421975858544e+01,3.383586430647896037e+01,1.985646421975858189e+01,-1.696124344083312110e+02,-1.696124344083312110e+02,-1.696124344083312110e+02
1.674942876026438210e+00,3.986157419572132454e+01,3.384097428244169947e+01,1.986157419572132454e+01,-1.697980110612737406e+02,-1.697980110612737406e+02,-1.697980110612737406e+02
1.706082389003124256e+00,3.986650503560018421e+01,3.384590512232056625e+01,1.986650503560018777e+01,-1.699804112790633894e+02,-1.699804112790633894e+02,-1.699804112790633894e+02
1.737800828749376247e+00,3.987126282629809282e+01,3.385066291301846775e+01,1.987126282629809282e+01,-1.701596821626886822e+02,-1.701596821626886822e+02,-1.701596821626887390e+02
1.770108958317422099e+00,3.987585346121504415e+01,3.385525354793541908e+01,1.987585346121504415e+01,-1.703358704996341544e+02,-1.703358704996341544e+02,-1.703358704996341828e+02
1.803017740859569784e+00,3.988028264547628510e+01,3.385968273219666713e+01,1.988028264547628510e+01,-1.705090227434637029e+02,-1.705090227434637029e+02,-1.705090227434637313e+02
1.836538343348347313e+00,3.988455590108492999e+01,3.386395598780530491e+01,1.988455590108492999e+01,-1.706791849949175912e+02,-1.706791849949175912e+02,-1.706791849949176481e+02
1.870682140365801827e+00,3.988867857199482359e+01,3.386807865871520562e+01,1.988867857199482714e+01,-1.708464029844542154e+02,-1.708464029844542154e+02,-1.708464029844542154e+02
1.905460717963248340e+00,3.989265582910021379e+01,3.387205591582058872e+01,1.989265582910021379e+01,-1.710107220561706356e+02,-1.710107220561706356e+02,-1.710107220561706356e+02
1.940885877592779529e+00,3.989649267513888731e+01,3.387589276185926934e+01,1.989649267513889086e+01,-1.711721871530389762e+02,-1.711721871530389762e+02,-1.711721871530390331e+02
1.976969640111861937e+00,3.990019394950628140e+01,3.387959403622665633e+01,1.990019394950628495e+01,-1.713308428033949724e+02,-1.713308428033949724e+02,-1.713308428033950293e+02
2.013724249862389293e+00,3.990376433297821990e+01,3.388316441969860193e+01,1.990376433297821990e+01,-1.714867331086187505e+02,-1.714867331086187505e+02,-1.714867331086187505e+02
2.051162178825564730e+00,3.990720835234046149e+01,3.388660843906083642e+01,1.990720835234046504e+01,-1.716399017319498057e+02,-1.716399017319498057e+02,-1.716399017319498057e+02
2.089296130854038758e+00,3.991053038492358240e+01,3.388993047164395733e+01,1.991053038492358240e+01,-1.717903918883794461e+02,-1.717903918883794461e+02,-1.717903918883795029e+02
2.128139045982711419e+00,3.991373466304193585e+01,3.389313474976231078e+01,1.991373466304193585e+01,-1.719382463355657080e+02,-1.719382463355657080e+02,-1.719382463355657080e+02
2.167704104819693889e+00,3.991682527833606287e+01,3.389622536505644490e+01,1.991682527833606642e+01,-1.720835073657181340e+02,-1.720835073657181340e+02,-1.720835073657181340e+02
2.208004733018899213e+00,3.991980618601772335e+01,3.389920627273809828e+01,1.991980618601771980e+01,-1.722262167984027599e+02,-1.722262167984027599e+02,-1.722262167984028167e+02
2.249054605835780318e+00,3.992268120901742634e+01,3.390208129573780127e+01,1.992268120901742989e+01,-1.723664159742166930e+02,-1.723664159742166930e+02,-1.723664159742166930e+02
2.290867652767772267e+00,3.992545404203440285e+01,3.390485412875477778e+01,1.992545404203440285e+01,-1.725041457492864652e+02,-1.725041457492864652e+02,-1.725041457492864652e+02
2.333458062281001943e+00,3.992812825548902111e+01,3.390752834220939604e+01,1.992812825548902111e+01,-1.726394464905447421e+02,-1.726394464905447421e+02,-1.726394464905447705e+02
2.376840286624875898e+00,3.993070729937824126e+01,3.391010738609861619e+01,1.993070729937823771e+01,-1.727723580717420759e+02,-1.727723580717420759e+02,-1.727723580717421328e+02
2.421029046736177470e+00,3.993319450703439344e+01,3.391259459375476837e+01,1.993319450703438989e+01,-1.729029198701515213e+02,-1.729029198701515213e+02,-1.729029198701515782e+02
2.466039337234338547e+00,3.993559309878820329e+01,3.391499318550857822e+01,1.993559309878819974e+01,-1.730311707639273209e+02,-1.730311707639273209e+02,-1.730311707639273777e+02
2.511886431509579687e+00,3.993790618553676097e+01,3.391730627225713590e+01,1.993790618553676097e+01,-1.731571491300785510e+02,-1.731571491300785510e+02,-1.731571491300786079e+02
2.558585886905645257e+00,3.994013677221749958e+01,3.391953685893787451e+01,1.994013677221749958e+01,-1.732808928430215190e+02,-1.732808928430215190e+02,-1.732808928430215758e+02
2.606153549998895258e+00,3.994228776118922042e+01,3.392168784790959535e+01,1.994228776118922042e+01,-1.734024392736763502e+02,-1.734024392736763502e+02,-1.734024392736763502e+02
2.654605561975539096e+00,3.994436195552144397e+01,3.392376204224181890e+01,1.994436195552144397e+01,-1.735218252890736039e+02,-1.735218252890736039e+02,-1.735218252890736608e+02
2.703958364108843160e+00,3.994636206219332308e+01,3.392576214891369801e+01,1.994636206219331598e+01,-1.736390872524400208e+02,-1.736390872524400208e+02,-1.736390872524400777e+02
2.754228703338166273e+00,3.994829069520348952e+01,3.392769078192386445e+01,1.994829069520348952e+01,-1.737542610237321412e+02,-1.737542610237321412e+02,-1.737542610237321981e+02
2.805433637951713077e+00,3.995015037859238305e+01,3.392955046531275798e+01,1.995015037859238305e+01,-1.738673819605891708e+02,-1.738673819605891708e+02,-1.738673819605891708e+02
2.857590543374946446e+00,3.995194354937841297e+01,3.393134363609879500e+01,1.995194354937841652e+01,-1.739784849196777259e+02,-1.739784849196777259e+02,-1.739784849196777259e+02
2.910717118066604936e+00,3.995367256040967163e+01,3.393307264713004656e+01,1.995367256040967163e+01,-1.740876042584017398e+02,-1.740876042584017398e+02,-1.740876042584017966e+02
2.964831389524342331e+00,3.995533968313268502e+01,3.393473976985305995e+01,1.995533968313268502e+01,-1.741947738369528622e+02,-1.741947738369528622e+02,-1.741947738369529191e+02
3.019951720402016537e+00,3.995694711027992696e+01,3.393634719700030900e+01,1.995694711027993051e+01,-1.743000270206769358e+02,-1.743000270206769358e+02,-1.743000270206769926e+02
3.076096814740707952e+00,3.995849695847774541e+01,3.393789704519812034e+01,1.995849695847774541e+01,-1.744033966827348934e+02,-1.744033966827348934e+02,-1.744033966827349502e+02
3.133285724315585608e+00,3.995999127077632096e+01,3.393939135749669589e+01,1.995999127077632096e+01,-1.745049152070358502e+02,-1.745049152070358502e+02,-1.745049152070359071e+02
3.191537855100761600e+00,3.996143201910350484e+01,3.394083210582387977e+01,1.996143201910350129e+01,-1.746046144914220690e+02,-1.746046144914220690e+02,-1.746046144914220690e+02
3.250872973854344039e+00,3.996282110664412102e+01,3.394222119336449595e+01,1.996282110664412102e+01,-1.747025259510868125e+02,-1.747025259510868125e+02,-1.747025259510868693e+02
3.311311214825911176e+00,3.996416037014655842e+01,3.394356045686693335e+01,1.996416037014656197e+01,-1.747986805222067233e+02,-1.747986805222067233e+02,-1.747986805222067233e+02
3.372873086588688896e+00,3.996545158215835158e+01,3.394485166887872651e+01,1.996545158215835158e+01,-1.748931086657702849e+02,-1.748931086657702849e+02,-1.748931086657703418e+02
3.435579478998746605e+00,3.996669645319236963e+01,3.394609653991275167e+01,1.996669645319237318e+01,-1.749858403715881536e+02,-1.749858403715881536e+02,-1.749858403715881536e+02
3.499451670283573623e+00,3.996789663382558899e+01,3.394729672054597103e+01,1.996789663382559255e+01,-1.750769051624671135e+02,-1.750769051624671135e+02,-1.750769051624671135e+02
3.564511334262442599e+00,3.996905371673186380e+01,3.394845380345223873e+01,1.996905371673186025e+01,-1.751663320985349515e+02,-1.751663320985349515e+02,-1.751663320985349515e+02
3.630780547701013994e+00,3.997016923865054849e+01,3.394956932537092342e+01,1.997016923865054849e+01,-1.752541497817015568e+02,-1.752541497817015568e+02,-1.752541497817015852e+02
3.698281797802662751e+00,3.997124468229272054e+01,3.395064476901309547e+01,1.997124468229272054e+01,-1.753403863602428316e+02,-1.753403863602428316e+02,-1.753403863602428885e+02
3.767037989839089107e+00,3.997228147818646704e+01,3.395168156490684197e+01,1.997228147818646349e+01,-1.754250695334956447e+02,-1.754250695334956447e+02,-1.754250695334956447e+02
3.837072454922788811e+00,3.997328100646301863e+01,3.395268109318339356e+01,1.997328100646301863e+01,-1.755082265566514934e+02,-1.755082265566514934e+02,-1.755082265566515503e+02
3.908408957924021099e+00,3.997424459858538626e+01,3.395364468530576119e+01,1.997424459858538626e+01,-1.755898842456383875e+02,-1.755898842456383875e+02,-1.755898842456384159e+02
3.981071705534973137e+00,3.997517353902093618e+01,3.395457362574131110e+01,1.997517353902093618e+01,-1.756700689820800392e+02,-1.756700689820800392e+02,-1.756700689820800960e+02
4.055085354483838778e+00,3.997606906685962969e+01,3.395546915358000462e+01,1.997606906685962969e+01,-1.757488067183230669e+02,-1.757488067183230669e+02,-1.757488067183230669e+02
4.130475019901614253e+00,3.997693237737941985e+01,3.395633246409979478e+01,1.997693237737941985e+01,-1.758261229825222927e+02,-1.758261229825222927e+02,-1.758261229825222927e+02
4.207266283844441901e+00,3.997776462356029725e+01,3.395716471028067218e+01,1.997776462356029725e+01,-1.759020428837765451e+02,-1.759020428837765451e+02,-1.759020428837766019e+02
4.285485203974396029e+00,3.997856691754851255e+01,3.395796700426888748e+01,1.997856691754851610e+01,-1.759765911173057020e+02,-1.759765911173057020e+02,-1.759765911173057589e+02
4.365158322401661017e+00,3.997934033207242521e+01,3.395874041879280725e+01,1.997934033207242521e+01,-1.760497919696619817e+02,-1.760497919696619817e+02,-1.760497919696619817e+02
4.446312674691088596e+00,3.998008590181142097e+01,3.395948598853179590e+01,1.998008590181142097e+01,-1.761216693239680922e+02,-1.761216693239680922e+02,-1.761216693239680922e+02
4.528975799036208727e+00,3.998080462471925500e+01,3.396020471143962993e+01,1.998080462471925500e+01,-1.761922466651758157e+02,-1.761922466651758157e+02,-1.761922466651758725e+02
4.613175745603795619e+00,3.998149746330327758e+01,3.396089755002365251e+01,1.998149746330327403e+01,-1.762615470853384068e+02,-1.762615470853384068e+02,-1.762615470853384068e+02
4.698941086052156102e+00,3.998216534586078552e+01,3.396156543258116045e+01,1.998216534586078552e+01,-1.763295932888908055e+02,-1.763295932888908055e+02,-1.763295932888908055e+02
4.786300923226384896e+00,3.998280916767389215e+01,3.396220925439426708e+01,1.998280916767388860e+01,-1.763964075979327788e+02,-1.763964075979327788e+02,-1.763964075979328072e+02
4.875284901033865026e+00,3.998342979216413084e+01,3.396282987888450577e+01,1.998342979216413084e+01,-1.764620119575093042e+02,-1.764620119575093042e+02,-1.764620119575093042e+02
4.965923214503362715e+00,3.998402805200809240e+01,3.396342813872846733e+01,1.998402805200809240e+01,-1.765264279408835080e+02,-1.765264279408835080e+02,-1.765264279408835364e+02
5.058246620031142449e+00,3.998460475021526861e+01,3.396400483693565064e+01,1.998460475021527216e+01,-1.765896767547980915e+02,-1.765896767547980915e+02,-1.765896767547980915e+02
5.152286445817567007e+00,3.998516066116933843e+01,3.396456074788972046e+01,1.998516066116934198e+01,-1.766517792447203590e+02,-1.766517792447203590e+02,-1.766517792447203590e+02
5.248074602497728947e+00,3.998569653163398385e+01,3.396509661835436589e+01,1.998569653163398385e+01,-1.767127559000678900e+02,-1.767127559000678900e+02,-1.767127559000678900e+02
5.345643593969718665e+00,3.998621308172441502e+01,3.396561316844479705e+01,1.998621308172441857e+01,-1.767726268594105079e+02,-1.767726268594105079e+02,-1.767726268594105647e+02
5.445026528424214085e+00,3.998671100584573423e+01,3.396611109256610916e+01,1.998671100584573423e+01,-1.768314119156457593e+02,-1.768314119156457593e+02,-1.768314119156457593e+02
5.546257129579109879e+00,3.998719097359906982e+01,3.396659106031944475e+01,1.998719097359906982e+01,-1.768891305211445228e+02,-1.768891305211445228e+02,-1.768891305211445228e+02
5.649369748123028501e+00,3.998765363065668055e+01,3.396705371737706258e+01,1.998765363065668410e+01,-1.769458017928641880e+02,-1.769458017928641880e+02,-1.769458017928641880e+02
5.754399373371572146e+00,3.998809959960692595e+01,3.396749968632730798e+01,1.998809959960692595e+01,-1.770014445174265347e+02,-1.770014445174265347e+02,-1.770014445174265347e+02
5.861381645140290253e+00,3.998852948077012570e+01,3.396792956749050063e+01,1.998852948077012570e+01,-1.770560771561581248e+02,-1.770560771561581248e+02,-1.770560771561581248e+02
5.970352865838371770e+00,3.998894385298623888e+01,3.396834393970661381e+01,1.998894385298623533e+01,-1.771097178500910161e+02,-1.771097178500910161e+02,-1.771097178500910729e+02
6.081350012787182457e+00,3.998934327437532943e+01,3.396874336109571146e+01,1.998934327437533298e+01,-1.771623844249216404e+02,-1.771623844249216404e+02,-1.771623844249216404e+02
6.194410750767818108e+00,3.998972828307169891e+01,3.396912836979208095e+01,1.998972828307170246e+01,-1.772140943959259971e+02,-1.772140943959259971e+02,-1.772140943959259971e+02
6.309573444801936937e+00,3.999009939793248236e+01,3.396949948465286440e+01,1.999009939793248947e+01,-1.772648649728299688e+02,-1.772648649728299688e+02,-1.772648649728300256e+02
6.426877173170199242e+00,3.999045711922168067e+01,3.396985720594205560e+01,1.999045711922168067e+01,-1.773147130646324854e+02,-1.773147130646324854e+02,-1.773147130646324854e+02
6.546361740672747231e+00,3.999080192927034716e+01,3.397020201599072209e+01,1.999080192927034716e+01,-1.773636552843807976e+02,-1.773636552843807976e+02,-1.773636552843807976e+02
6.668067692136218305e+00,3.999113429311380230e+01,3.397053437983417723e+01,1.999113429311380585e+01,-1.774117079538964958e+02,-1.774117079538964958e+02,-1.774117079538965527e+02
6.792036326171842830e+00,3.999145465910659425e+01,3.397085474582696918e+01,1.999145465910659780e+01,-1.774588871084509663e+02,-1.774588871084509663e+02,-1.774588871084510231e+02
6.918309709189361278e+00,3.999176345951592282e+01,3.397116354623629775e+01,1.999176345951592637e+01,-1.775052085013894896e+02,-1.775052085013894896e+02,-1.775052085013894896e+02
7.046930689671467185e+00,3.999206111109436534e+01,3.397146119781474027e+01,1.999206111109436890e+01,-1.775506876087031856e+02,-1.775506876087031856e+02,-1.775506876087031856e+02
7.177942912713614732e+00,3.999234801563247999e+01,3.397174810235285491e+01,1.999234801563248354e+01,-1.775953396335480932e+02,-1.775953396335480932e+02,-1.775953396335481216e+02
7.311390834834172736e+00,3.999262456049208225e+01,3.397202464721245718e+01,1.999262456049208225e+01,-1.776391795107103917e+02,-1.776391795107103917e+02,-1.776391795107103917e+02
7.447319739059887311e+00,3.999289111912071348e+01,3.397229120584108841e+01,1.999289111912071348e+01,-1.776822219110176775e+02,-1.776822219110176775e+02,-1.776822219110176775e+02
7.585775750291835706e+00,3.999314805154811836e+01,3.397254813826849329e+01,1.999314805154812191e+01,-1.777244812456954151e+02,-1.777244812456954151e+02,-1.777244812456954719e+02
7.726805850957020994e+00,3.999339570486517204e+01,3.397279579158554697e+01,1.999339570486517204e+01,-1.777659716706689608e+02,-1.777659716706689608e+02,-1.777659716706689608e+02
7.870457896950984633e+00,3.999363441368595318e+01,3.397303450040632811e+01,1.999363441368595318e+01,-1.778067070908094252e+02,-1.778067070908094252e+02,-1.778067070908094252e+02
8.016780633876789963e+00,3.999386450059355269e+01,3.397326458731392762e+01,1.999386450059355269e+01,-1.778467011641248519e+02,-1.778467011641248519e+02,-1.778467011641248519e+02
8.165823713585922405e+00,3.999408627657012971e+01,3.397348636329050464e+01,1.999408627657013326e+01,-1.778859673058952922e+02,-1.778859673058952922e+02,-1.778859673058953490e+02
8.317637711026709013e+00,3.999430004141174777e+01,3.397370012813212981e+01,1.999430004141174777e+01,-1.779245186927525708e+02,-1.779245186927525708e+02,-1.779245186927526277e+02
8.472274141405963022e+00,3.999450608412857378e+01,3.397390617084894870e+01,1.999450608412857378e+01,-1.779623682667036348e+02,-1.779623682667036348e+02,-1.779623682667036348e+02
8.629785477669701166e+00,3.999470468333090878e+01,3.397410477005128371e+01,1.999470468333090878e+01,-1.779995287390987073e+02,-1.779995287390987073e+02,-1.779995287390987073e+02
8.790225168308841930e+00,3.999489610760154079e+01,3.397429619432192283e+01,1.999489610760154079e+01,-1.780360125945438199e+02,-1.780360125945438199e+02,-1.780360125945438199e+02
8.953647655495936775e+00,3.999508061585490282e+01,3.397448070257527775e+01,1.999508061585489926e+01,-1.780718320947572977e+02,-1.780718320947572977e+02,-1.780718320947572977e+02
9.120108393559096527e+00,3.999525845768347665e+01,3.397465854440385158e+01,1.999525845768347665e+01,-1.781069992823715040e+02,-1.781069992823715040e+02,-1.781069992823715609e+02
9.289663867799362151e+00,3.999542987369193980e+01,3.397482996041231473e+01,1.999542987369193980e+01,-1.781415259846790775e+02,-1.781415259846790775e+02,-1.781415259846790775e+02
9.462371613657929004e+00,3.999559509581938244e+01,3.397499518253975737e+01,1.999559509581938244e+01,-1.781754238173240310e+02,-1.781754238173240310e+02,-1.781754238173240878e+02
9.638290236239704711e+00,3.999575434765012716e+01,3.397515443437050209e+01,1.999575434765013071e+01,-1.782087041879391620e+02,-1.782087041879391620e+02,-1.782087041879391620e+02
9.817479430199844259e+00,3.999590784471346439e+01,3.397530793143384642e+01,1.999590784471346794e+01,-1.782413782997278986e+02,-1.782413782997278986e+02,-1.782413782997278986e+02
1.000000000000000000e+01,3.999605579477272954e+01,3.397545588149310447e+01,1.999605579477272954e+01,-1.782734571549933662e+02,-1.782734571549933662e+02,-1.782734571549933662e+02
1.018591388054116997e+01,3.999619839810406319e+01,3.397559848482443812e+01,1.999619839810406674e+01,-1.783049515586130553e+02,-1.783049515586130553e+02,-1.783049515586130838e+02
1.037528415818012739e+01,3.999633584776529460e+01,3.397573593448566953e+01,1.999633584776529460e+01,-1.783358721214609091e+02,-1.783358721214609091e+02,-1.783358721214609091e+02
1.056817509213658468e+01,3.999646832985516198e+01,3.397586841657553691e+01,1.999646832985515843e+01,-1.783662292637760913e+02,-1.783662292637760913e+02,-1.783662292637760913e+02
1.076465213629835027e+01,3.999659602376335954e+01,3.397599611048373447e+01,1.999659602376335954e+01,-1.783960332184799995e+02,-1.783960332184799995e+02,-1.783960332184799995e+02
1.096478196143185180e+01,3.999671910241160333e+01,3.397611918913197826e+01,1.999671910241159623e+01,-1.784252940344410945e+02,-1.784252940344410945e+02,-1.784252940344411513e+02
1.116863247780561252e+01,3.999683773248612795e+01,3.397623781920650288e+01,1.999683773248612439e+01,-1.784540215796886002e+02,-1.784540215796886002e+02,-1.784540215796886571e+02
1.137627285823431045e+01,3.999695207466186275e+01,3.397635216138223768e+01,1.999695207466186275e+01,-1.784822255445750443e+02,-1.784822255445750443e+02,-1.784822255445751011e+02
1.158777356155126270e+01,3.999706228381860029e+01,3.397646237053897522e+01,1.999706228381860029e+01,-1.785099154448888612e+02,-1.785099154448888612e+02,-1.785099154448888612e+02
1.180320635651730043e+01,3.999716850924941980e+01,3.397656859596979473e+01,1.999716850924941980e+01,-1.785371006249166896e+02,-1.785371006249166896e+02,-1.785371006249167181e+02
1.202264434617413080e+01,3.999727089486168552e+01,3.397667098158206045e+01,1.999727089486168552e+01,-1.785637902604570115e+02,-1.785637902604570115e+02,-1.785637902604570115e+02
1.224616199265048877e+01,3.999736957937080462e+01,3.397676966609118665e+01,1.999736957937080817e+01,-1.785899933617844226e+02,-1.785899933617844226e+02,-1.785899933617844226e+02
1.247383514242943292e+01,3.999746469648714253e+01,3.397686478320751746e+01,1.999746469648713898e+01,-1.786157187765660694e+02,-1.786157187765660694e+02,-1.786157187765660694e+02
1.270574105208542015e+01,3.999755637509608874e+01,3.397695646181646367e+01,1.999755637509608874e+01,-1.786409751927304512e+02,-1.786409751927304512e+02,-1.786409751927305081e+02
1.294195841449986339e+01,3.999764473943185550e+01,3.397704482615223753e+01,1.999764473943185550e+01,-1.786657711412892695e+02,-1.786657711412892695e+02,-1.786657711412892695e+02
1.318256738556407370e+01,3.999772990924490301e+01,3.397712999596527794e+01,1.999772990924490301e+01,-1.786901149991122395e+02,-1.786901149991122395e+02,-1.786901149991122395e+02
1.342764961137864255e+01,3.999781199996342451e+01,3.397721208668379944e+01,1.999781199996342096e+01,-1.787140149916568248e+02,-1.787140149916568248e+02,-1.787140149916568248e+02
1.367728825595849429e+01,3.999789112284904036e+01,3.397729120956941529e+01,1.999789112284904036e+01,-1.787374791956520710e+02,-1.787374791956520710e+02,-1.787374791956520994e+02
1.393156802945303774e+01,3.999796738514690730e+01,3.397736747186728223e+01,1.999796738514690730e+01,-1.787605155417380161e+02,-1.787605155417380161e+02,-1.787605155417380161e+02
1.419057521689092560e+01,3.999804089023040632e+01,3.397744097695078125e+01,1.999804089023040632e+01,-1.787831318170607346e+02,-1.787831318170607346e+02,-1.787831318170607915e+02
1.445439770745928065e+01,3.999811173774068607e+01,3.397751182446106100e+01,1.999811173774068607e+01,-1.788053356678240959e+02,-1.788053356678240959e+02,-1.788053356678241528e+02
1.472312502432719405e+01,3.999818002372116865e+01,3.397758011044154358e+01,1.999818002372116510e+01,-1.788271346017982921e+02,-1.788271346017982921e+02,-1.788271346017982921e+02
1.499684835502373836e+01,3.999824584074720946e+01,3.397764592746758439e+01,1.999824584074720946e+01,-1.788485359907861039e+02,-1.788485359907861039e+02,-1.788485359907861323e+02
1.527566058238073232e+01,3.999830927805115977e+01,3.397770936477153469e+01,1.999830927805115977e+01,-1.788695470730476416e+02,-1.788695470730476416e+02,-1.788695470730476416e+02
1.555965631605075039e+01,3.999837042164286061e+01,3.397777050836323554e+01,1.999837042164286061e+01,-1.788901749556835057e+02,-1.788901749556835057e+02,-1.788901749556835057e+02
1.584893192461114175e+01,3.999842935442585201e+01,3.397782944114622694e+01,1.999842935442584491e+01,-1.789104266169774462e+02,-1.789104266169774462e+02,-1.789104266169774462e+02
1.614358556826486790e+01,3.999848615630938298e+01,3.397788624302975791e+01,1.999848615630937942e+01,-1.789303089086993452e+02,-1.789303089086993452e+02,-1.789303089086993452e+02
1.644371723214932501e+01,3.999854090431643527e+01,3.397794099103681020e+01,1.999854090431643527e+01,-1.789498285583681536e+02,-1.789498285583681536e+02,-1.789498285583682105e+02
1.674942876026438299e+01,3.999859367268779664e+01,3.397799375940817157e+01,1.999859367268779309e+01,-1.789689921714767138e+02,-1.789689921714767138e+02,-1.789689921714767706e+02
1.706082389003124433e+01,3.999864453298243205e+01,3.397804461970281409e+01,1.999864453298243561e+01,-1.789878062336776168e+02,-1.789878062336776168e+02,-1.789878062336776736e+02
1.737800828749376336e+01,3.999869355417426675e+01,3.397809364089464168e+01,1.999869355417426675e+01,-1.790062771129318548e+02,-1.790062771129318548e+02,-1.790062771129319117e+02
1.770108958317421965e+01,3.999874080274540233e+01,3.397814088946577726e+01,1.999874080274540233e+01,-1.790244110616199862e+02,-1.790244110616199862e+02,-1.790244110616200430e+02
1.803017740859569784e+01,3.999878634277607148e+01,3.397818642949645351e+01,1.999878634277607503e+01,-1.790422142186170902e+02,-1.790422142186170902e+02,-1.790422142186171470e+02
1.836538343348347269e+01,3.999883023603130994e+01,3.397823032275168487e+01,1.999883023603130994e+01,-1.790596926113314851e+02,-1.790596926113314851e+02,-1.790596926113315135e+02
1.870682140365801516e+01,3.999887254204449505e+01,3.397827262876486998e+01,1.999887254204449505e+01,-1.790768521577080037e+02,-1.790768521577080037e+02,-1.790768521577080037e+02
1.905460717963248385e+01,3.999891331819790707e+01,3.397831340491828200e+01,1.999891331819790352e+01,-1.790936986681964527e+02,-1.790936986681964527e+02,-1.790936986681965095e+02
1.940885877592779352e+01,3.999895261980036310e+01,3.397835270652074513e+01,1.999895261980036665e+01,-1.791102378476857666e+02,-1.791102378476857666e+02,-1.791102378476858235e+02
1.976969640111861892e+01,3.999899050016209401e+01,3.397839058688246894e+01,1.999899050016208690e+01,-1.791264752974042267e+02,-1.791264752974042267e+02,-1.791264752974042835e+02
2.013724249862389470e+01,3.999902701066684330e+01,3.397842709738721823e+01,1.999902701066684330e+01,-1.791424165167865397e+02,-1.791424165167865397e+02,-1.791424165167865965e+02
2.051162178825566684e+01,3.999906220084147890e+01,3.397846228756185383e+01,1.999906220084147890e+01,-1.791580669053080896e+02,-1.791580669053080896e+02,-1.791580669053080896e+02
2.089296130854040356e+01,3.999909611842299739e+01,3.397849620514337232e+01,1.999909611842299384e+01,-1.791734317642869314e+02,-1.791734317642869314e+02,-1.791734317642869883e+02
2.128139045982713284e+01,3.999912880942316917e+01,3.397852889614354410e+01,1.999912880942316917e+01,-1.791885162986544628e+02,-1.791885162986544628e+02,-1.791885162986544628e+02
2.167704104819694422e+01,3.999916031819083173e+01,3.397856040491121377e+01,1.999916031819083528e+01,-1.792033256186943220e+02,-1.792033256186943220e+02,-1.792033256186943504e+02
2.208004733018899302e+01,3.999919068747195894e+01,3.397859077419233387e+01,1.999919068747195894e+01,-1.792178647417510433e+02,-1.792178647417510433e+02,-1.792178647417511002e+02
2.249054605835780407e+01,3.999921995846751344e+01,3.397862004518788837e+01,1.999921995846751344e+01,-1.792321385939085872e+02,-1.792321385939085872e+02,-1.792321385939086440e+02
2.290867652767772356e+01,3.999924817088929530e+01,3.397864825760967022e+01,1.999924817088929174e+01,-1.792461520116387987e+02,-1.792461520116387987e+02,-1.792461520116388272e+02
2.333458062281001943e+01,3.999927536301368036e+01,3.397867544973405529e+01,1.999927536301368036e+01,-1.792599097434210762e+02,-1.792599097434210762e+02,-1.792599097434211330e+02
2.376840286624875986e+01,3.999930157173351120e+01,3.397870165845388613e+01,1.999930157173350764e+01,-1.792734164513333042e+02,-1.792734164513333042e+02,-1.792734164513333042e+02
2.421029046736177293e+01,3.999932683260803401e+01,3.397872691932840894e+01,1.999932683260803401e+01,-1.792866767126140815e+02,-1.792866767126140815e+02,-1.792866767126141383e+02
2.466039337234338547e+01,3.999935117991113032e+01,3.397875126663150525e+01,1.999935117991112676e+01,-1.792996950211982039e+02,-1.792996950211982039e+02,-1.792996950211982039e+02
2.511886431509579509e+01,3.999937464667767273e+01,3.397877473339804766e+01,1.999937464667766918e+01,-1.793124757892235834e+02,-1.793124757892235834e+02,-1.793124757892236403e+02
2.558585886905645168e+01,3.999939726474836021e+01,3.397879735146873514e+01,1.999939726474836021e+01,-1.793250233485125307e+02,-1.793250233485125307e+02,-1.793250233485125875e+02
2.606153549998894903e+01,3.999941906481283382e+01,3.397881915153320875e+01,1.999941906481283027e+01,-1.793373419520258949e+02,-1.793373419520258949e+02,-1.793373419520259517e+02
2.654605561975538564e+01,3.999944007645125055e+01,3.397884016317162548e+01,1.999944007645125055e+01,-1.793494357752915107e+02,-1.793494357752915107e+02,-1.793494357752915107e+02
2.703958364108843426e+01,3.999946032817440056e+01,3.397886041489477549e+01,1.999946032817439345e+01,-1.793613089178071789e+02,-1.793613089178071789e+02,-1.793613089178072357e+02
2.754228703338166184e+01,3.999947984746232521e+01,3.397887993418270014e+01,1.999947984746232166e+01,-1.793729654044188635e+02,-1.793729654044188635e+02,-1.793729654044188635e+02
2.805433637951713166e+01,3.999949866080157079e+01,3.397889874752194572e+01,1.999949866080157079e+01,-1.793844091866734516e+02,-1.793844091866734516e+02,-1.793844091866735084e+02
2.857590543374946179e+01,3.999951679372109936e+01,3.397891688044147429e+01,1.999951679372110291e+01,-1.793956441441484913e+02,-1.793956441441484913e+02,-1.793956441441484913e+02
2.910717118066605025e+01,3.999953427082687796e+01,3.397893435754725289e+01,1.999953427082687440e+01,-1.794066740857569187e+02,-1.794066740857569187e+02,-1.794066740857569187e+02
2.964831389524342242e+01,3.999955111583523149e+01,3.397895120255561352e+01,1.999955111583523149e+01,-1.794175027510293319e+02,-1.794175027510293319e+02,-1.794175027510293887e+02
3.019951720402016093e+01,3.999956735160503030e+01,3.397896743832540523e+01,1.999956735160503030e+01,-1.794281338113729305e+02,-1.794281338113729305e+02,-1.794281338113729873e+02
3.076096814740708041e+01,3.999958300016862722e+01,3.397898308688900215e+01,1.999958300016862367e+01,-1.794385708713077463e+02,-1.794385708713077463e+02,-1.794385708713077463e+02
3.133285724315585696e+01,3.999959808276175011e+01,3.397899816948212504e+01,1.999959808276175011e+01,-1.794488174696807619e+02,-1.794488174696807619e+02,-1.794488174696808187e+02
3.191537855100761334e+01,3.999961261985233563e+01,3.397901270657271056e+01,1.999961261985233918e+01,-1.794588770808587128e+02,-1.794588770808587128e+02,-1.794588770808587128e+02
3.250872973854343684e+01,3.999962663116821204e+01,3.397902671788858697e+01,1.999962663116821204e+01,-1.794687531158984086e+02,-1.794687531158984086e+02,-1.794687531158984655e+02
3.311311214825911264e+01,3.999964013572389376e+01,3.397904022244426869e+01,1.999964013572389376e+01,-1.794784489236972433e+02,-1.794784489236972433e+02,-1.794784489236972433e+02
3.372873086588688807e+01,3.999965315184635273e+01,3.397905323856672766e+01,1.999965315184635273e+01,-1.794879677921219923e+02,-1.794879677921219923e+02,-1.794879677921220491e+02
3.435579478998746339e+01,3.999966569719987319e+01,3.397906578392024812e+01,1.999966569719986964e+01,-1.794973129491179122e+02,-1.794973129491179122e+02,-1.794973129491179122e+02
3.499451670283573179e+01,3.999967778881000413e+01,3.397907787553037906e+01,1.999967778881000058e+01,-1.795064875637974922e+02,-1.795064875637974922e+02,-1.795064875637975490e+02
3.564511334262442688e+01,3.999968944308665186e+01,3.397908952980702679e+01,1.999968944308665186e+01,-1.795154947475100755e+02,-1.795154947475100755e+02,-1.795154947475100755e+02
3.630780547701014171e+01,3.999970067584632716e+01,3.397910076256670209e+01,1.999970067584633071e+01,-1.795243375548913889e+02,-1.795243375548913889e+02,-1.795243375548914173e+02
3.698281797802662396e+01,3.999971150233362494e+01,3.397911158905399986e+01,1.999971150233362138e+01,-1.795330189848951932e+02,-1.795330189848951932e+02,-1.795330189848952500e+02
3.767037989839089107e+01,3.999972193724183711e+01,3.397912202396221204e+01,1.999972193724183711e+01,-1.795415419818053522e+02,-1.795415419818053522e+02,-1.795415419818054090e+02
3.837072454922788012e+01,3.999973199473296148e+01,3.397913208145334352e+01,1.999973199473296503e+01,-1.795499094362302799e+02,-1.795499094362302799e+02,-1.795499094362303367e+02
3.908408957924021365e+01,3.999974168845686506e+01,3.397914177517723999e+01,1.999974168845686151e+01,-1.795581241860790840e+02,-1.795581241860790840e+02,-1.795581241860790840e+02
3.981071705534973404e+01,3.999975103156977951e+01,3.397915111829015444e+01,1.999975103156977596e+01,-1.795661890175201734e+02,-1.795661890175201734e+02,-1.795661890175201734e+02
4.055085354483838955e+01,3.999976003675219971e+01,3.397916012347257464e+01,1.999976003675219616e+01,-1.795741066659227272e+02,-1.795741066659227272e+02,-1.795741066659227272e+02
4.130475019901614786e+01,3.999976871622605756e+01,3.397916880294643249e+01,1.999976871622605046e+01,-1.795818798167808836e+02,-1.795818798167808836e+02,-1.795818798167809405e+02
4.207266283844441546e+01,3.999977708177127766e+01,3.397917716849165259e+01,1.999977708177127411e+01,-1.795895111066213587e+02,-1.795895111066213587e+02,-1.795895111066213587e+02
4.285485203974396740e+01,3.999978514474181424e+01,3.397918523146218917e+01,1.999978514474181424e+01,-1.795970031238943534e+02,-1.795970031238943534e+02,-1.795970031238944102e+02
4.365158322401661195e+01,3.999979291608099885e+01,3.397919300280137378e+01,1.999979291608099530e+01,-1.796043584098491408e+02,-1.796043584098491408e+02,-1.796043584098491408e+02
4.446312674691088773e+01,3.999980040633641920e+01,3.397920049305679413e+01,1.999980040633641920e+01,-1.796115794593925443e+02,-1.796115794593925443e+02,-1.796115794593925727e+02
4.528975799036209082e+01,3.999980762567422232e+01,3.397920771239459725e+01,1.999980762567421877e+01,-1.796186687219332896e+02,-1.796186687219332896e+02,-1.796186687219332896e+02
4.613175745603795264e+01,3.999981458389287070e+01,3.397921467061324563e+01,1.999981458389287070e+01,-1.796256286022098152e+02,-1.796256286022098152e+02,-1.796256286022098152e+02
4.698941086052155924e+01,3.999982129043652179e+01,3.397922137715689672e+01,1.999982129043651824e+01,-1.796324614611038442e+02,-1.796324614611038442e+02,-1.796324614611039010e+02
4.786300923226384896e+01,3.999982775440773253e+01,3.397922784112810746e+01,1.999982775440773253e+01,-1.796391696164391476e+02,-1.796391696164391476e+02,-1.796391696164391476e+02
4.875284901033865026e+01,3.999983398457990802e+01,3.397923407130028295e+01,1.999983398457990091e+01,-1.796457553437652450e+02,-1.796457553437652450e+02,-1.796457553437653019e+02
4.965923214503362715e+01,3.999983998940911789e+01,3.397924007612949282e+01,1.999983998940911789e+01,-1.796522208771278599e+02,-1.796522208771278599e+02,-1.796522208771278599e+02
5.058246620031141561e+01,3.999984577704565680e+01,3.397924586376603173e+01,1.999984577704566036e+01,-1.796585684098243973e+02,-1.796585684098243973e+02,-1.796585684098243973e+02
5.152286445817566829e+01,3.999985135534502945e+01,3.397925144206541148e+01,1.999985135534503655e+01,-1.796648000951464894e+02,-1.796648000951464894e+02,-1.796648000951464894e+02
5.248074602497728591e+01,3.999985673187865842e+01,3.397925681859903335e+01,1.999985673187865487e+01,-1.796709180471086427e+02,-1.796709180471086427e+02,-1.796709180471086711e+02
5.345643593969719376e+01,3.999986191394410184e+01,3.397926200066447677e+01,1.999986191394410184e+01,-1.796769243411638683e+02,-1.796769243411638683e+02,-1.796769243411638683e+02
5.445026528424213552e+01,3.999986690857503646e+01,3.397926699529541139e+01,1.999986690857504001e+01,-1.796828210149060681e+02,-1.796828210149060681e+02,-1.796828210149061249e+02
5.546257129579110057e+01,3.999987172255072920e+01,3.397927180927110413e+01,1.999987172255072565e+01,-1.796886100687601413e+02,-1.796886100687601413e+02,-1.796886100687601413e+02
5.649369748123028501e+01,3.999987636240526712e+01,3.397927644912564915e+01,1.999987636240527067e+01,-1.796942934666589053e+02,-1.796942934666589053e+02,-1.796942934666589338e+02
5.754399373371572324e+01,3.999988083443643916e+01,3.397928092115681409e+01,1.999988083443643561e+01,-1.796998731367083906e+02,-1.796998731367083906e+02,-1.796998731367083906e+02
5.861381645140290431e+01,3.999988514471422718e+01,3.397928523143460211e+01,1.999988514471422363e+01,-1.797053509718405166e+02,-1.797053509718405166e+02,-1.797053509718405166e+02
5.970352865838371770e+01,3.999988929908910507e+01,3.397928938580948000e+01,1.999988929908910507e+01,-1.797107288304542863e+02,-1.797107288304542863e+02,-1.797107288304542863e+02
6.081350012787182635e+01,3.999989330319995418e+01,3.397929338992032910e+01,1.999989330319995062e+01,-1.797160085370450133e+02,-1.797160085370450133e+02,-1.797160085370450133e+02
6.194410750767818286e+01,3.999989716248169458e+01,3.397929724920206951e+01,1.999989716248169103e+01,-1.797211918828224668e+02,-1.797211918828224668e+02,-1.797211918828225237e+02
6.309573444801936404e+01,3.999990088217269602e+01,3.397930096889307094e+01,1.999990088217269246e+01,-1.797262806263174468e+02,-1.797262806263174468e+02,-1.797262806263174753e+02
6.426877173170200308e+01,3.999990446732184779e+01,3.397930455404222272e+01,1.999990446732184779e+01,-1.797312764939774752e+02,-1.797312764939774752e+02,-1.797312764939775036e+02
6.546361740672753626e+01,3.999990792279546525e+01,3.397930800951584018e+01,1.999990792279546525e+01,-1.797361811807517427e+02,-1.797361811807517427e+02,-1.797361811807517995e+02
6.668067692136224878e+01,3.999991125328382680e+01,3.397931134000420172e+01,1.999991125328382324e+01,-1.797409963506652559e+02,-1.797409963506652559e+02,-1.797409963506652559e+02
6.792036326171850646e+01,3.999991446330759004e+01,3.397931455002796497e+01,1.999991446330759004e+01,-1.797457236373825822e+02,-1.797457236373825822e+02,-1.797457236373825822e+02
6.918309709189362877e+01,3.999991755722390252e+01,3.397931764394427745e+01,1.999991755722390252e+01,-1.797503646447614756e+02,-1.797503646447614756e+02,-1.797503646447614756e+02
7.046930689671467007e+01,3.999992053923232760e+01,3.397932062595270963e+01,1.999992053923233115e+01,-1.797549209473962719e+02,-1.797549209473962719e+02,-1.797549209473962719e+02
7.177942912713615442e+01,3.999992341338053592e+01,3.397932350010091085e+01,1.999992341338053592e+01,-1.797593940911514494e+02,-1.797593940911514494e+02,-1.797593940911514494e+02
7.311390834834172381e+01,3.999992618356979790e+01,3.397932627029017283e+01,1.999992618356979790e+01,-1.797637855936854976e+02,-1.797637855936854976e+02,-1.797637855936855260e+02
7.447319739059888377e+01,3.999992885356027728e+01,3.397932894028065931e+01,1.999992885356028083e+01,-1.797680969449652082e+02,-1.797680969449652082e+02,-1.797680969449652650e+02
7.585775750291836061e+01,3.999993142697615411e+01,3.397933151369652904e+01,1.999993142697615411e+01,-1.797723296077707005e+02,-1.797723296077707005e+02,-1.797723296077707005e+02
7.726805850957020994e+01,3.999993390731050624e+01,3.397933399403088117e+01,1.999993390731050269e+01,-1.797764850181910674e+02,-1.797764850181910674e+02,-1.797764850181911243e+02
7.870457896950985344e+01,3.999993629793007699e+01,3.397933638465045902e+01,1.999993629793008054e+01,-1.797805645861114101e+02,-1.797805645861114101e+02,-1.797805645861114101e+02
8.016780633876788897e+01,3.999993860207985819e+01,3.397933868880023311e+01,1.999993860207986174e+01,-1.797845696956901804e+02,-1.797845696956901804e+02,-1.797845696956901804e+02
8.165823713585920984e+01,3.999994082288744579e+01,3.397934090960782783e+01,1.999994082288744934e+01,-1.797885017058290202e+02,-1.797885017058290202e+02,-1.797885017058290771e+02
8.317637711026708303e+01,3.999994296336733157e+01,3.397934305008770650e+01,1.999994296336733512e+01,-1.797923619506329374e+02,-1.797923619506329374e+02,-1.797923619506329374e+02
8.472274141405962666e+01,3.999994502642496741e+01,3.397934511314534234e+01,1.999994502642496741e+01,-1.797961517398626938e+02,-1.797961517398626938e+02,-1.797961517398627507e+02
8.629785477669700811e+01,3.999994701486072302e+01,3.397934710158109795e+01,1.999994701486072302e+01,-1.797998723593788668e+02,-1.797998723593788668e+02,-1.797998723593788668e+02
8.790225168308842285e+01,3.999994893137368024e+01,3.397934901809405517e+01,1.999994893137368024e+01,-1.798035250715776669e+02,-1.798035250715776669e+02,-1.798035250715777238e+02
8.953647655495937840e+01,3.999995077856528525e+01,3.397935086528566728e+01,1.999995077856528525e+01,-1.798071111158191115e+02,-1.798071111158191115e+02,-1.798071111158191115e+02
9.120108393559097237e+01,3.999995255894291546e+01,3.397935264566329039e+01,1.999995255894291191e+01,-1.798106317088469552e+02,-1.798106317088469552e+02,-1.798106317088470121e+02
9.289663867799363572e+01,3.999995427492323330e+01,3.397935436164360823e+01,1.999995427492323330e+01,-1.798140880452014869e+02,-1.798140880452014869e+02,-1.798140880452015153e+02
9.462371613657930425e+01,3.999995592883551154e+01,3.397935601555588647e+01,1.999995592883551154e+01,-1.798174812976243402e+02,-1.798174812976243402e+02,-1.798174812976243402e+02
9.638290236239704711e+01,3.999995752292476681e+01,3.397935760964514174e+01,1.999995752292476681e+01,-1.798208126174562551e+02,-1.798208126174562551e+02,-1.798208126174562551e+02
9.817479430199843193e+01,3.999995905935480778e+01,3.397935914607518271e+01,1.999995905935481133e+01,-1.798240831350274789e+02,-1.798240831350274789e+02,-1.798240831350274789e+02
1.000000000000000000e+02,3.999996054021119107e+01,3.397936062693156600e+01,1.999996054021119107e+01,-1.798272939600409188e+02,-1.798272939600409188e+02,-1.798272939600409188e+02
1.018591388054116891e+02,3.999996196750403499e+01,3.397936205422440992e+01,1.999996196750403143e+01,-1.798304461819486448e+02,-1.798304461819486448e+02,-1.798304461819486448e+02
1.037528415818012633e+02,3.999996334317074087e+01,3.397936342989111580e+01,1.999996334317074087e+01,-1.798335408703210305e+02,-1.798335408703210305e+02,-1.798335408703210874e+02
1.056817509213658610e+02,3.999996466907865056e+01,3.397936475579902549e+01,1.999996466907865056e+01,-1.798365790752098690e+02,-1.798365790752098690e+02,-1.798365790752099258e+02
1.076465213629834778e+02,3.999996594702756170e+01,3.397936603374794373e+01,1.999996594702756170e+01,-1.798395618275040704e+02,-1.798395618275040704e+02,-1.798395618275041272e+02
1.096478196143185215e+02,3.999996717875217200e+01,3.397936726547254693e+01,1.999996717875217200e+01,-1.798424901392795334e+02,-1.798424901392795334e+02,-1.798424901392795618e+02
1.116863247780561181e+02,3.999996836592443117e+01,3.397936845264480610e+01,1.999996836592442406e+01,-1.798453650041421383e+02,-1.798453650041421383e+02,-1.798453650041421668e+02
1.137627285823431009e+02,3.999996951015580748e+01,3.397936959687618952e+01,1.999996951015580748e+01,-1.798481873975649989e+02,-1.798481873975649989e+02,-1.798481873975650558e+02
1.158777356155126341e+02,3.999997061299951184e+01,3.397937069971989388e+01,1.999997061299951540e+01,-1.798509582772190640e+02,-1.798509582772190640e+02,-1.798509582772191209e+02
1.180320635651729759e+02,3.999997167595254410e+01,3.397937176267292614e+01,1.999997167595254410e+01,-1.798536785832980911e+02,-1.798536785832980911e+02,-1.798536785832980911e+02
1.202264434617412974e+02,3.999997270045777498e+01,3.397937278717814991e+01,1.999997270045777853e+01,-1.798563492388373106e+02,-1.798563492388373106e+02,-1.798563492388373675e+02
1.224616199265048948e+02,3.999997368790588581e+01,3.397937377462626074e+01,1.999997368790588581e+01,-1.798589711500268038e+02,-1.798589711500268038e+02,-1.798589711500268038e+02
1.247383514242943221e+02,3.999997463963724442e+01,3.397937472635761935e+01,1.999997463963724087e+01,-1.798615452065184854e+02,-1.798615452065184854e+02,-1.798615452065184854e+02
1.270574105208541908e+02,3.999997555694373830e+01,3.397937564366411323e+01,1.999997555694373830e+01,-1.798640722817281699e+02,-1.798640722817281699e+02,-1.798640722817281699e+02
1.294195841449986233e+02,3.999997644107055095e+01,3.397937652779093298e+01,1.999997644107055095e+01,-1.798665532331315831e+02,-1.798665532331315831e+02,-1.798665532331316399e+02
1.318256738556407299e+02,3.999997729321781037e+01,3.397937737993818530e+01,1.999997729321780682e+01,-1.798689889025555431e+02,-1.798689889025555431e+02,-1.798689889025555431e+02
1.342764961137864077e+02,3.999997811454222330e+01,3.397937820126259822e+01,1.999997811454221974e+01,-1.798713801164630297e+02,-1.798713801164630297e+02,-1.798713801164630866e+02
1.367728825595849571e+02,3.999997890615867391e+01,3.397937899287904884e+01,1.999997890615867391e+01,-1.798737276862339343e+02,-1.798737276862339343e+02,-1.798737276862339911e+02
1.393156802945303525e+02,3.999997966914172309e+01,3.397937975586209802e+01,1.999997966914171954e+01,-1.798760324084401532e+02,-1.798760324084401532e+02,-1.798760324084401532e+02
1.419057521689092596e+02,3.999998040452705794e+01,3.397938049124743287e+01,1.999998040452705439e+01,-1.798782950651155943e+02,-1.798782950651155943e+02,-1.798782950651156227e+02
1.445439770745927888e+02,3.999998111331290573e+01,3.397938120003328066e+01,1.999998111331290573e+01,-1.798805164240217778e+02,-1.798805164240217778e+02,-1.798805164240217778e+02
1.472312502432719441e+02,3.999998179646138396e+01,3.397938188318175889e+01,1.999998179646138752e+01,-1.798826972389081220e+02,-1.798826972389081220e+02,-1.798826972389081504e+02
1.499684835502374085e+02,3.999998245489982196e+01,3.397938254162019689e+01,1.999998245489982196e+01,-1.798848382497675402e+02,-1.798848382497675402e+02,-1.798848382497675971e+02
1.527566058238073197e+02,3.999998308952199011e+01,3.397938317624237214e+01,1.999998308952199366e+01,-1.798869401830876598e+02,-1.798869401830876598e+02,-1.798869401830877166e+02
1.555965631605075146e+02,3.999998370118934332e+01,3.397938378790972536e+01,1.999998370118934332e+01,-1.798890037520971248e+02,-1.798890037520971248e+02,-1.798890037520971816e+02
1.584893192461114211e+02,3.999998429073217210e+01,3.397938437745254703e+01,1.999998429073217210e+01,-1.798910296570076071e+02,-1.798910296570076071e+02,-1.798910296570076639e+02
1.614358556826487074e+02,3.999998485895073941e+01,3.397938494567111434e+01,1.999998485895073941e+01,-1.798930185852513546e+02,-1.798930185852513546e+02,-1.798930185852513546e+02
1.644371723214932786e+02,3.999998540661635360e+01,3.397938549333672853e+01,1.999998540661635360e+01,-1.798949712117142496e+02,-1.798949712117142496e+02,-1.798949712117143065e+02
1.674942876026438228e+02,3.999998593447243422e+01,3.397938602119280915e+01,1.999998593447243067e+01,-1.798968881989650868e+02,-1.798968881989650868e+02,-1.798968881989651436e+02
1.706082389003124433e+02,3.999998644323550678e+01,3.397938652995588171e+01,1.999998644323550323e+01,-1.798987701974799620e+02,-1.798987701974799620e+02,-1.798987701974800189e+02
1.737800828749376478e+02,3.999998693359617619e+01,3.397938702031655112e+01,1.999998693359617619e+01,-1.799006178458632519e+02,-1.799006178458632519e+02,-1.799006178458632519e+02
1.770108958317422037e+02,3.999998740622007176e+01,3.397938749294044669e+01,1.999998740622007531e+01,-1.799024317710640446e+02,-1.799024317710640446e+02,-1.799024317710640446e+02
1.803017740859569926e+02,3.999998786174874965e+01,3.397938794846913169e+01,1.999998786174874965e+01,-1.799042125885889902e+02,-1.799042125885889902e+02,-1.799042125885889902e+02
1.836538343348347553e+02,3.999998830080055967e+01,3.397938838752093460e+01,1.999998830080056322e+01,-1.799059609027110582e+02,-1.799059609027110582e+02,-1.799059609027110866e+02
1.870682140365801729e+02,3.999998872397148375e+01,3.397938881069185868e+01,1.999998872397147665e+01,-1.799076773066745432e+02,-1.799076773066745432e+02,-1.799076773066745432e+02
1.905460717963248385e+02,3.999998913183593174e+01,3.397938921855630667e+01,1.999998913183592819e+01,-1.799093623828962620e+02,-1.799093623828962620e+02,-1.799093623828963189e+02
1.940885877592779707e+02,3.999998952494755855e+01,3.397938961166793348e+01,1.999998952494756210e+01,-1.799110167031633409e+02,-1.799110167031633409e+02,-1.799110167031633978e+02
1.976969640111861963e+02,3.999998990383999597e+01,3.397938999056037090e+01,1.999998990383999597e+01,-1.799126408288269658e+02,-1.799126408288269658e+02,-1.799126408288270227e+02
2.013724249862389399e+02,3.999999026902754906e+01,3.397939035574792399e+01,1.999999026902754906e+01,-1.799142353109930355e+02,-1.799142353109930355e+02,-1.799142353109930923e+02
2.051162178825566684e+02,3.999999062100594927e+01,3.397939070772632419e+01,1.999999062100594571e+01,-1.799158006907089771e+02,-1.799158006907089771e+02,-1.799158006907090339e+02
2.089296130854040712e+02,3.999999096025295842e+01,3.397939104697334045e+01,1.999999096025296197e+01,-1.799173374991474930e+02,-1.799173374991474930e+02,-1.799173374991475214e+02
2.128139045982713355e+02,3.999999128722911479e+01,3.397939137394948972e+01,1.999999128722911479e+01,-1.799188462577865266e+02,-1.799188462577865266e+02,-1.799188462577865266e+02
2.167704104819696340e+02,3.999999160237823759e+01,3.397939168909861962e+01,1.999999160237824114e+01,-1.799203274785863584e+02,-1.799203274785863584e+02,-1.799203274785864153e+02
2.208004733018901504e+02,3.999999190612813038e+01,3.397939199284850531e+01,1.999999190612813038e+01,-1.799217816641633760e+02,-1.799217816641633760e+02,-1.799217816641634329e+02
2.249054605835782752e+02,3.999999219889111401e+01,3.397939228561149605e+01,1.999999219889111757e+01,-1.799232093079604340e+02,-1.799232093079604340e+02,-1.799232093079604908e+02
2.290867652767774700e+02,3.999999248106460215e+01,3.397939256778497708e+01,1.999999248106460215e+01,-1.799246108944143430e+02,-1.799246108944143430e+02,-1.799246108944143714e+02
2.333458062281004572e+02,3.999999275303160573e+01,3.397939283975198776e+01,1.999999275303160573e+01,-1.799259868991202325e+02,-1.799259868991202325e+02,-1.799259868991202325e+02
2.376840286624878331e+02,3.999999301516132277e+01,3.397939310188169770e+01,1.999999301516131922e+01,-1.799273377889928156e+02,-1.799273377889928156e+02,-1.799273377889928440e+02
2.421029046736180135e+02,3.999999326780955755e+01,3.397939335452993248e+01,1.999999326780955755e+01,-1.799286640224251244e+02,-1.799286640224251244e+02,-1.799286640224251528e+02
2.466039337234341247e+02,3.999999351131927483e+01,3.397939359803964976e+01,1.999999351131927838e+01,-1.799299660494436068e+02,-1.799299660494436068e+02,-1.799299660494436637e+02
2.511886431509582280e+02,3.999999374602102620e+01,3.397939383274140823e+01,1.999999374602102620e+01,-1.799312443118611498e+02,-1.799312443118611498e+02,-1.799312443118611498e+02
2.558585886905647726e+02,3.999999397223339770e+01,3.397939405895377263e+01,1.999999397223339770e+01,-1.799324992434267756e+02,-1.799324992434267756e+02,-1.799324992434268040e+02
2.606153549998897461e+02,3.999999419026345748e+01,3.397939427698383241e+01,1.999999419026345038e+01,-1.799337312699729807e+02,-1.799337312699729807e+02,-1.799337312699729807e+02
2.654605561975541832e+02,3.999999440040716081e+01,3.397939448712753574e+01,1.999999440040716081e+01,-1.799349408095600609e+02,-1.799349408095600609e+02,-1.799349408095601177e+02
2.703958364108846126e+02,3.999999460294977638e+01,3.397939468967015131e+01,1.999999460294977283e+01,-1.799361282726181344e+02,-1.799361282726181344e+02,-1.799361282726181628e+02
2.754228703338168884e+02,3.999999479816623449e+01,3.397939488488660942e+01,1.999999479816623094e+01,-1.799372940620862096e+02,-1.799372940620862096e+02,-1.799372940620862096e+02
2.805433637951716150e+02,3.999999498632153205e+01,3.397939507304190698e+01,1.999999498632152850e+01,-1.799384385735489502e+02,-1.799384385735489502e+02,-1.799384385735489502e+02
2.857590543374949448e+02,3.999999516767107366e+01,3.397939525439145569e+01,1.999999516767107721e+01,-1.799395621953710531e+02,-1.799395621953710531e+02,-1.799395621953710815e+02
2.910717118066608009e+02,3.999999534246103394e+01,3.397939542918141598e+01,1.999999534246103750e+01,-1.799406653088288692e+02,-1.799406653088288692e+02,-1.799406653088289261e+02
2.964831389524345582e+02,3.999999551092868444e+01,3.397939559764905937e+01,1.999999551092868444e+01,-1.799417482882398360e+02,-1.799417482882398360e+02,-1.799417482882398360e+02
3.019951720402019077e+02,3.999999567330269912e+01,3.397939576002307405e+01,1.999999567330269556e+01,-1.799428115010893237e+02,-1.799428115010893237e+02,-1.799428115010893521e+02
3.076096814740711238e+02,3.999999582980348123e+01,3.397939591652385616e+01,1.999999582980348478e+01,-1.799438553081556620e+02,-1.799438553081556620e+02,-1.799438553081556620e+02
3.133285724315588823e+02,3.999999598064349726e+01,3.397939606736387219e+01,1.999999598064349371e+01,-1.799448800636321835e+02,-1.799448800636321835e+02,-1.799448800636322119e+02
3.191537855100764887e+02,3.999999612602748300e+01,3.397939621274785793e+01,1.999999612602747945e+01,-1.799458861152476459e+02,-1.799458861152476459e+02,-1.799458861152477027e+02
3.250872973854347379e+02,3.999999626615278459e+01,3.397939635287315951e+01,1.999999626615278814e+01,-1.799468738043841824e+02,-1.799468738043841824e+02,-1.799468738043842393e+02
3.311311214825913680e+02,3.999999640120962852e+01,3.397939648793000345e+01,1.999999640120963207e+01,-1.799478434661930919e+02,-1.799478434661930919e+02,-1.799478434661930919e+02
3.372873086588692217e+02,3.999999653138134192e+01,3.397939661810171685e+01,1.999999653138134192e+01,-1.799487954297084116e+02,-1.799487954297084116e+02,-1.799487954297084684e+02
3.435579478998749892e+02,3.999999665684461547e+01,3.397939674356499040e+01,1.999999665684461547e+01,-1.799497300179589558e+02,-1.799497300179589558e+02,-1.799497300179589558e+02
3.499451670283576732e+02,3.999999677776976625e+01,3.397939686449014118e+01,1.999999677776976625e+01,-1.799506475480775123e+02,-1.799506475480775123e+02,-1.799506475480775123e+02
3.564511334262446667e+02,3.999999689432093675e+01,3.397939698104131168e+01,1.999999689432094030e+01,-1.799515483314086168e+02,-1.799515483314086168e+02,-1.799515483314086737e+02
3.630780547701017440e+02,3.999999700665634350e+01,3.397939709337671843e+01,1.999999700665634350e+01,-1.799524326736143962e+02,-1.799524326736143962e+02,-1.799524326736144531e+02
3.698281797802666233e+02,3.999999711492846899e+01,3.397939720164884392e+01,1.999999711492846899e+01,-1.799533008747779377e+02,-1.799533008747779377e+02,-1.799533008747779377e+02
3.767037989839092802e+02,3.999999721928429608e+01,3.397939730600467101e+01,1.999999721928429253e+01,-1.799541532295051809e+02,-1.799541532295051809e+02,-1.799541532295052377e+02
3.837072454922792417e+02,3.999999731986546436e+01,3.397939740658583929e+01,1.999999731986546436e+01,-1.799549900270251328e+02,-1.799549900270251328e+02,-1.799549900270251896e+02
3.908408957924024776e+02,3.999999741680851884e+01,3.397939750352889376e+01,1.999999741680851884e+01,-1.799558115512877805e+02,-1.799558115512877805e+02,-1.799558115512877805e+02
3.981071705534977241e+02,3.999999751024504491e+01,3.397939759696541984e+01,1.999999751024504491e+01,-1.799566180810603839e+02,-1.799566180810603839e+02,-1.799566180810604408e+02
4.055085354483843503e+02,3.999999760030188867e+01,3.397939768702226360e+01,1.999999760030188867e+01,-1.799574098900224044e+02,-1.799574098900224044e+02,-1.799574098900224044e+02
4.130475019901610381e+02,3.999999768710128478e+01,3.397939777382166682e+01,1.999999768710128834e+01,-1.799581872468579320e+02,-1.799581872468579320e+02,-1.799581872468579888e+02
4.207266283844437567e+02,3.999999777076106966e+01,3.397939785748144459e+01,1.999999777076106966e+01,-1.799589504153472319e+02,-1.799589504153472319e+02,-1.799589504153472319e+02
4.285485203974392334e+02,3.999999785139480224e+01,3.397939793811517717e+01,1.999999785139480224e+01,-1.799596996544558749e+02,-1.799596996544558749e+02,-1.799596996544559317e+02
4.365158322401656505e+02,3.999999792911192742e+01,3.397939801583230235e+01,1.999999792911193097e+01,-1.799604352184230436e+02,-1.799604352184230436e+02,-1.799604352184231004e+02
4.446312674691083657e+02,3.999999800401796080e+01,3.397939809073833572e+01,1.999999800401796080e+01,-1.799611573568475080e+02,-1.799611573568475080e+02,-1.799611573568475080e+02
4.528975799036204535e+02,3.999999807621455972e+01,3.397939816293493465e+01,1.999999807621455972e+01,-1.799618663147722657e+02,-1.799618663147722657e+02,-1.799618663147723225e+02
4.613175745603790574e+02,3.999999814579973645e+01,3.397939823252011848e+01,1.999999814579974000e+01,-1.799625623327679591e+02,-1.799625623327679591e+02,-1.799625623327680159e+02
4.698941086052150808e+02,3.999999821286796475e+01,3.397939829958833968e+01,1.999999821286796475e+01,-1.799632456470142756e+02,-1.799632456470142756e+02,-1.799632456470143325e+02
4.786300923226380064e+02,3.999999827751026515e+01,3.397939836423064008e+01,1.999999827751026160e+01,-1.799639164893802104e+02,-1.799639164893802104e+02,-1.799639164893802672e+02
4.875284901033859910e+02,3.999999833981438258e+01,3.397939842653475750e+01,1.999999833981438258e+01,-1.799645750875027090e+02,-1.799645750875027090e+02,-1.799645750875027090e+02
4.965923214503357599e+02,3.999999839986490713e+01,3.397939848658528206e+01,1.999999839986490713e+01,-1.799652216648638330e+02,-1.799652216648638330e+02,-1.799652216648638330e+02
5.058246620031137581e+02,3.999999845774334517e+01,3.397939854446372010e+01,1.999999845774334872e+01,-1.799658564408667019e+02,-1.799658564408667019e+02,-1.799658564408667587e+02
5.152286445817561571e+02,3.999999851352826852e+01,3.397939860024864345e+01,1.999999851352826852e+01,-1.799664796309099870e+02,-1.799664796309099870e+02,-1.799664796309100439e+02
5.248074602497722481e+02,3.999999856729539260e+01,3.397939865401576753e+01,1.999999856729539260e+01,-1.799670914464608416e+02,-1.799670914464608416e+02,-1.799670914464608416e+02
5.345643593969713265e+02,3.999999861911770438e+01,3.397939870583807931e+01,1.999999861911770793e+01,-1.799676920951266652e+02,-1.799676920951266652e+02,-1.799676920951266652e+02
5.445026528424208436e+02,3.999999866906556178e+01,3.397939875578593671e+01,1.999999866906555823e+01,-1.799682817807257038e+02,-1.799682817807257038e+02,-1.799682817807257038e+02
5.546257129579104230e+02,3.999999871720675770e+01,3.397939880392713263e+01,1.999999871720675415e+01,-1.799688607033561709e+02,-1.799688607033561709e+02,-1.799688607033561709e+02
5.649369748123021964e+02,3.999999876360662654e+01,3.397939885032700147e+01,1.999999876360663009e+01,-1.799694290594639767e+02,-1.799694290594639767e+02,-1.799694290594639767e+02
5.754399373371566071e+02,3.999999880832817922e+01,3.397939889504855415e+01,1.999999880832817922e+01,-1.799699870419095191e+02,-1.799699870419095191e+02,-1.799699870419095475e+02
5.861381645140285173e+02,3.999999885143211031e+01,3.397939893815248524e+01,1.999999885143210676e+01,-1.799705348400332809e+02,-1.799705348400332809e+02,-1.799705348400332809e+02
5.970352865838366370e+02,3.999999889297691880e+01,3.397939897969729373e+01,1.999999889297692235e+01,-1.799710726397196936e+02,-1.799710726397196936e+02,-1.799710726397196936e+02
6.081350012787175956e+02,3.999999893301902176e+01,3.397939901973940380e+01,1.999999893301902176e+01,-1.799716006234604890e+02,-1.799716006234604890e+02,-1.799716006234605459e+02
6.194410750767812033e+02,3.999999897161276152e+01,3.397939905833313645e+01,1.999999897161276152e+01,-1.799721189704167159e+02,-1.799721189704167159e+02,-1.799721189704167159e+02
6.309573444801930009e+02,3.999999900881053350e+01,3.397939909553090843e+01,1.999999900881052994e+01,-1.799726278564791926e+02,-1.799726278564791926e+02,-1.799726278564792494e+02
6.426877173170194055e+02,3.999999904466281464e+01,3.397939913138318957e+01,1.999999904466281819e+01,-1.799731274543284769e+02,-1.799731274543284769e+02,-1.799731274543284769e+02
6.546361740672747374e+02,3.999999907921829134e+01,3.397939916593867338e+01,1.999999907921829134e+01,-1.799736179334932729e+02,-1.799736179334932729e+02,-1.799736179334932729e+02
6.668067692136219193e+02,3.999999911252386653e+01,3.397939919924424146e+01,1.999999911252385942e+01,-1.799740994604081834e+02,-1.799740994604081834e+02,-1.799740994604082402e+02
6.792036326171842120e+02,3.999999914462473782e+01,3.397939923134511275e+01,1.999999914462473782e+01,-1.799745721984699856e+02,-1.799745721984699856e+02,-1.799745721984700424e+02
6.918309709189362593e+02,3.999999917556449702e+01,3.397939926228487195e+01,1.999999917556449347e+01,-1.799750363080931095e+02,-1.799750363080931095e+02,-1.799750363080931663e+02
7.046930689671467007e+02,3.999999920538513010e+01,3.397939929210550503e+01,1.999999920538512654e+01,-1.799754919467641798e+02,-1.799754919467641798e+02,-1.799754919467641798e+02
7.177942912713615442e+02,3.999999923412711667e+01,3.397939932084749159e+01,1.999999923412711667e+01,-1.799759392690952211e+02,-1.799759392690952211e+02,-1.799759392690952211e+02
7.311390834834173802e+02,3.999999926182948684e+01,3.397939934854986177e+01,1.999999926182948684e+01,-1.799763784268764084e+02,-1.799763784268764084e+02,-1.799763784268764653e+02
7.447319739059888661e+02,3.999999928852983544e+01,3.397939937525021037e+01,1.999999928852983189e+01,-1.799768095691275107e+02,-1.799768095691275107e+02,-1.799768095691275676e+02
7.585775750291835493e+02,3.999999931426440014e+01,3.397939940098477507e+01,1.999999931426440369e+01,-1.799772328421482257e+02,-1.799772328421482257e+02,-1.799772328421482825e+02
7.726805850957022130e+02,3.999999933906812544e+01,3.397939942578850037e+01,1.999999933906812544e+01,-1.799776483895680883e+02,-1.799776483895680883e+02,-1.799776483895680883e+02
7.870457896950985059e+02,3.999999936297467684e+01,3.397939944969505177e+01,1.999999936297467329e+01,-1.799780563523950150e+02,-1.799780563523950150e+02,-1.799780563523950150e+02
8.016780633876788897e+02,3.999999938601649774e+01,3.397939947273687977e+01,1.999999938601650129e+01,-1.799784568690633648e+02,-1.799784568690633648e+02,-1.799784568690633648e+02
8.165823713585922405e+02,3.999999940822488043e+01,3.397939949494525536e+01,1.999999940822488398e+01,-1.799788500754806932e+02,-1.799788500754806932e+02,-1.799788500754806932e+02
8.317637711026708303e+02,3.999999942962996613e+01,3.397939951635034106e+01,1.999999942962996613e+01,-1.799792361050740510e+02,-1.799792361050740510e+02,-1.799792361050740510e+02
8.472274141405963519e+02,3.999999945026080184e+01,3.397939953698118387e+01,1.999999945026080184e+01,-1.799796150888350610e+02,-1.799796150888350610e+02,-1.799796150888351178e+02
8.629785477669702232e+02,3.999999947014541135e+01,3.397939955686578628e+01,1.999999947014540780e+01,-1.799799871553646824e+02,-1.799799871553646824e+02,-1.799799871553646824e+02
8.790225168308842285e+02,3.999999948931075977e+01,3.397939957603114181e+01,1.999999948931076332e+01,-1.799803524309163834e+02,-1.799803524309163834e+02,-1.799803524309163834e+02
8.953647655495936988e+02,3.999999950778289559e+01,3.397939959450327052e+01,1.999999950778289204e+01,-1.799807110394394840e+02,-1.799807110394394840e+02,-1.799807110394394840e+02
9.120108393559096385e+02,3.999999952558687255e+01,3.397939961230724748e+01,1.999999952558686545e+01,-1.799810631026208227e+02,-1.799810631026208227e+02,-1.799810631026208227e+02
9.289663867799363288e+02,3.999999954274684910e+01,3.397939962946722403e+01,1.999999954274684910e+01,-1.799814087399263371e+02,-1.799814087399263371e+02,-1.799814087399263371e+02
9.462371613657928719e+02,3.999999955928614526e+01,3.397939964600652019e+01,1.999999955928614170e+01,-1.799817480686413376e+02,-1.799817480686413376e+02,-1.799817480686413944e+02
9.638290236239706701e+02,3.999999957522719285e+01,3.397939966194756778e+01,1.999999957522719285e+01,-1.799820812039106102e+02,-1.799820812039106102e+02,-1.799820812039106102e+02
9.817479430199844046e+02,3.999999959059163501e+01,3.397939967731201705e+01,1.999999959059163857e+01,-1.799824082587770988e+02,-1.799824082587770988e+02,-1.799824082587770988e+02
9.999999999999998863e+02,3.999999960540033328e+01,3.397939969212070821e+01,1.999999960540033328e+01,-1.799827293442206155e+02,-1.799827293442206155e+02,-1.799827293442206724e+02
1.018591388054117033e+03,3.999999961967338891e+01,3.397939970639376384e+01,1.999999961967338891e+01,-1.799830445691954424e+02,-1.799830445691954424e+02,-1.799830445691954424e+02
1.037528415818012718e+03,3.999999963343017839e+01,3.397939972015055332e+01,1.999999963343017484e+01,-1.799833540406670522e+02,-1.799833540406670522e+02,-1.799833540406670522e+02
1.056817509213658468e+03,3.999999964668936059e+01,3.397939973340974262e+01,1.999999964668936059e+01,-1.799836578636486593e+02,-1.799836578636486593e+02,-1.799836578636486593e+02
1.076465213629835034e+03,3.999999965946895486e+01,3.397939974618932979e+01,1.999999965946895131e+01,-1.799839561412367459e+02,-1.799839561412367459e+02,-1.799839561412368028e+02
1.096478196143185187e+03,3.999999967178629845e+01,3.397939975850667338e+01,1.999999967178629490e+01,-1.799842489746462206e+02,-1.799842489746462206e+02,-1.799842489746462206e+02
1.116863247780561096e+03,3.999999968365810332e+01,3.397939977037847825e+01,1.999999968365810332e+01,-1.799845364632443534e+02,-1.799845364632443534e+02,-1.799845364632444102e+02
1.137627285823431066e+03,3.999999969510049880e+01,3.397939978182088083e+01,1.999999969510049880e+01,-1.799848187045850523e+02,-1.799848187045850523e+02,-1.799848187045850523e+02
1.158777356155126199e+03,3.999999970612901024e+01,3.397939979284938516e+01,1.999999970612901379e+01,-1.799850957944413494e+02,-1.799850957944413494e+02,-1.799850957944413494e+02
1.180320635651729845e+03,3.999999971675860877e+01,3.397939980347898370e+01,1.999999971675860877e+01,-1.799853678268385409e+02,-1.799853678268385409e+02,-1.799853678268385409e+02
1.202264434617413144e+03,3.999999972700373263e+01,3.397939981372410756e+01,1.999999972700372908e+01,-1.799856348940855071e+02,-1.799856348940855071e+02,-1.799856348940855639e+02
1.224616199265048863e+03,3.999999973687827293e+01,3.397939982359864786e+01,1.999999973687826937e+01,-1.799858970868064887e+02,-1.799858970868064887e+02,-1.799858970868065455e+02
1.247383514242943193e+03,3.999999974639563760e+01,3.397939983311601253e+01,1.999999974639564115e+01,-1.799861544939716111e+02,-1.799861544939716111e+02,-1.799861544939716111e+02
1.270574105208541823e+03,3.999999975556875853e+01,3.397939984228913346e+01,1.999999975556875498e+01,-1.799864072029269835e+02,-1.799864072029269835e+02,-1.799864072029269835e+02
1.294195841449986347e+03,3.999999976441007732e+01,3.397939985113045225e+01,1.999999976441007377e+01,-1.799866552994246263e+02,-1.799866552994246263e+02,-1.799866552994246263e+02
1.318256738556407527e+03,3.999999977293158793e+01,3.397939985965196286e+01,1.999999977293159148e+01,-1.799868988676513482e+02,-1.799868988676513482e+02,-1.799868988676513482e+02
1.342764961137864248e+03,3.999999978114487931e+01,3.397939986786525424e+01,1.999999978114487931e+01,-1.799871379902573665e+02,-1.799871379902573665e+02,-1.799871379902573949e+02
1.367728825595849457e+03,3.999999978906107856e+01,3.397939987578145349e+01,1.999999978906107856e+01,-1.799873727483844164e+02,-1.799873727483844164e+02,-1.799873727483844164e+02
1.393156802945303525e+03,3.999999979669094330e+01,3.397939988341131823e+01,1.999999979669094330e+01,-1.799876032216931208e+02,-1.799876032216931208e+02,-1.799876032216931776e+02
1.419057521689092709e+03,3.999999980404483324e+01,3.397939989076520817e+01,1.999999980404483324e+01,-1.799878294883903038e+02,-1.799878294883903038e+02,-1.799878294883903038e+02
1.445439770745927945e+03,3.999999981113272440e+01,3.397939989785309933e+01,1.999999981113272440e+01,-1.799880516252551672e+02,-1.799880516252551672e+02,-1.799880516252551672e+02
1.472312502432719384e+03,3.999999981796423754e+01,3.397939990468461247e+01,1.999999981796423754e+01,-1.799882697076656939e+02,-1.799882697076656939e+02,-1.799882697076657223e+02
1.499684835502373971e+03,3.999999982454865233e+01,3.397939991126902726e+01,1.999999982454864877e+01,-1.799884838096239719e+02,-1.799884838096239719e+02,-1.799884838096239719e+02
1.527566058238073538e+03,3.999999983089489319e+01,3.397939991761526812e+01,1.999999983089489319e+01,-1.799886940037813758e+02,-1.799886940037813758e+02,-1.799886940037814327e+02
1.555965631605075032e+03,3.999999983701159323e+01,3.397939992373196816e+01,1.999999983701158968e+01,-1.799889003614633509e+02,-1.799889003614633509e+02,-1.799889003614634078e+02
1.584893192461113813e+03,3.999999984290704447e+01,3.397939992962741940e+01,1.999999984290704447e+01,-1.799891029526934858e+02,-1.799891029526934858e+02,-1.799891029526934858e+02
1.614358556826486847e+03,3.999999984858924762e+01,3.397939993530962255e+01,1.999999984858924407e+01,-1.799893018462171597e+02,-1.799893018462171597e+02,-1.799893018462171597e+02
1.644371723214932672e+03,3.999999985406591918e+01,3.397939994078629411e+01,1.999999985406592273e+01,-1.799894971095251890e+02,-1.799894971095251890e+02,-1.799894971095251890e+02
1.674942876026437943e+03,3.999999985934449853e+01,3.397939994606488057e+01,1.999999985934449853e+01,-1.799896888088764229e+02,-1.799896888088764229e+02,-1.799896888088764229e+02
1.706082389003124263e+03,3.999999986443214794e+01,3.397939995115252287e+01,1.999999986443214439e+01,-1.799898770093203950e+02,-1.799898770093203950e+02,-1.799898770093203950e+02
1.737800828749376251e+03,3.999999986933576679e+01,3.397939995605614172e+01,1.999999986933576679e+01,-1.799900617747193223e+02,-1.799900617747193223e+02,-1.799900617747193792e+02
1.770108958317422321e+03,3.999999987406202706e+01,3.397939996078240199e+01,1.999999987406202351e+01,-1.799902431677699042e+02,-1.799902431677699042e+02,-1.799902431677699610e+02
1.803017740859569813e+03,3.999999987861731654e+01,3.397939996533769147e+01,1.999999987861732009e+01,-1.799904212500243830e+02,-1.799904212500243830e+02,-1.799904212500243830e+02
1.836538343348347325e+03,3.999999988300785247e+01,3.397939996972822740e+01,1.999999988300785247e+01,-1.799905960819115762e+02,-1.799905960819115762e+02,-1.799905960819115762e+02
1.870682140365801615e+03,3.999999988723957500e+01,3.397939997395994993e+01,1.999999988723957145e+01,-1.799907677227573402e+02,-1.799907677227573402e+02,-1.799907677227573970e+02
1.905460717963248271e+03,3.999999989131822531e+01,3.397939997803860024e+01,1.999999989131822531e+01,-1.799909362308048060e+02,-1.799909362308048060e+02,-1.799909362308048628e+02
1.940885877592779025e+03,3.999999989524935273e+01,3.397939998196972766e+01,1.999999989524934918e+01,-1.799911016632339340e+02,-1.799911016632339340e+02,-1.799911016632339340e+02
1.976969640111861963e+03,3.999999989903828634e+01,3.397939998575866127e+01,1.999999989903828279e+01,-1.799912640761810678e+02,-1.799912640761810678e+02,-1.799912640761811247e+02
2.013724249862389570e+03,3.999999990269017047e+01,3.397939998941054540e+01,1.999999990269017047e+01,-1.799914235247579768e+02,-1.799914235247579768e+02,-1.799914235247579768e+02
2.051162178825566571e+03,3.999999990620995760e+01,3.397939999293033964e+01,1.999999990620996115e+01,-1.799915800630705291e+02,-1.799915800630705291e+02,-1.799915800630705291e+02
2.089296130854040712e+03,3.999999990960243679e+01,3.397939999632281172e+01,1.999999990960243679e+01,-1.799917337442369671e+02,-1.799917337442369671e+02,-1.799917337442370240e+02
2.128139045982713469e+03,3.999999991287220524e+01,3.397939999959258017e+01,1.999999991287220524e+01,-1.799918846204061538e+02,-1.799918846204061538e+02,-1.799918846204061822e+02
2.167704104819696113e+03,3.999999991602370386e+01,3.397940000274407879e+01,1.999999991602370386e+01,-1.799920327427749669e+02,-1.799920327427749669e+02,-1.799920327427750237e+02
2.208004733018901334e+03,3.999999991906121011e+01,3.397940000578158504e+01,1.999999991906120655e+01,-1.799921781616060343e+02,-1.799921781616060343e+02,-1.799921781616060343e+02
