wout,mag_total_0,mag_total_1,mag_total_2,phase_total_0,phase_total_1,phase_total_2
1.000000000000000021e-02,1.041149862237269375e+01,4.390898709093213448e+00,-9.588501377627117961e+00,-9.190011500306341929e+01,-9.190010906306342520e+01,-9.190010431106341571e+01
1.018591388054116906e-02,1.057131944405833579e+01,4.550719530778858157e+00,-9.428680555941470587e+00,-9.193541415776478232e+01,-9.193540810733196622e+01,-9.193540326698567355e+01
1.037528415818012723e-02,1.073113354927912511e+01,4.710533635999653690e+00,-9.268866450720672390e+00,-9.197136806164814971e+01,-9.197136189872939838e+01,-9.197135696839433194e+01
1.056817509213658565e-02,1.089094068657351144e+01,4.870340773294042691e+00,-9.109059313426282500e+00,-9.200798880168940741e+01,-9.200798252419342305e+01,-9.200797750219658155e+01
1.076465213629834890e-02,1.105074059508853068e+01,5.030140681809069925e+00,-8.949259404911252602e+00,-9.204528868472081626e+01,-9.204528229051747701e+01,-9.204527717515476581e+01
1.096478196143185063e-02,1.121053300423085375e+01,5.189933090951398320e+00,-8.789466995768922430e+00,-9.208328024124386957e+01,-9.208327372816339107e+01,-9.208326851769899690e+01
1.116863247780561230e-02,1.137031763330495160e+01,5.349717720025502388e+00,-8.629682366694813922e+00,-9.212197622929727459e+01,-9.212196959512962735e+01,-9.212196428779544988e+01
1.137627285823430978e-02,1.153009419113802458e+01,5.509494277858580702e+00,-8.469905808861739160e+00,-9.216138963838076847e+01,-9.216138288087472574e+01,-9.216137747486985177e+01
1.158777356155126122e-02,1.168986237569111353e+01,5.669262462411676751e+00,-8.310137624308637783e+00,-9.220153369343434235e+01,-9.220152681029689745e+01,-9.220152130378690458e+01
1.180320635651730017e-02,1.184962187365599107e+01,5.829021960376563172e+00,-8.150378126343747809e+00,-9.224242185887349876e+01,-9.224241484776896982e+01,-9.224240923888528698e+01
1.202264434617413176e-02,1.200937236003723818e+01,5.988772446757815615e+00,-7.990627639962495365e+00,-9.228406784267993146e+01,-9.228406070122922245e+01,-9.228405498806861829e+01
1.224616199265048978e-02,1.216911349771902451e+01,6.148513584439614377e+00,-7.830886502280698380e+00,-9.232648560054830966e+01,-9.232647832632812879e+01,-9.232647250695190166e+01
1.247383514242943192e-02,1.232884493701608797e+01,6.308245023736683166e+00,-7.671155062983619821e+00,-9.236968934008831411e+01,-9.236968193063027854e+01,-9.236967600306380177e+01
1.270574105208541887e-02,1.248856631520823868e+01,6.467966401928838316e+00,-7.511433684791464671e+00,-9.241369352508240809e+01,-9.241368597787224815e+01,-9.241367994010408893e+01
1.294195841449986319e-02,1.264827725605789333e+01,6.627677342778505398e+00,-7.351722743941794036e+00,-9.245851287979864708e+01,-9.245850519227536779e+01,-9.245849904225673299e+01
1.318256738556407466e-02,1.280797736931004671e+01,6.787377456030663225e+00,-7.192022630689630880e+00,-9.250416239335845603e+01,-9.250415456291347027e+01,-9.250414829855742482e+01
1.342764961137864199e-02,1.296766625017396812e+01,6.947066336894595295e+00,-7.032333749825697922e+00,-9.255065732415894786e+01,-9.255064934813509581e+01,-9.255064296731599427e+01
1.367728825595849670e-02,1.312734347878608787e+01,7.106743565506726590e+00,-6.872656521213563963e+00,-9.259801320434925742e+01,-9.259800508004006758e+01,-9.259799858059267308e+01
1.393156802945303557e-02,1.328700861965334212e+01,7.266408706373993276e+00,-6.712991380346297277e+00,-9.264624584436037935e+01,-9.264623756900900275e+01,-9.264623094872786169e+01
1.419057521689091883e-02,1.344666122107630102e+01,7.426061307796960165e+00,-6.553338778923324170e+00,-9.269537133748777080e+01,-9.269536290828611413e+01,-9.269535616492477459e+01
1.445439770745927249e-02,1.360630081455140683e+01,7.585700901272077523e+00,-6.393699185448205924e+00,-9.274540606452610803e+01,-9.274539747861392414e+01,-9.274539060988414008e+01
1.472312502432718793e-02,1.376592691415154768e+01,7.745327000872226364e+00,-6.234073085848052642e+00,-9.279636669845521624e+01,-9.279635795291900990e+01,-9.279635095649000220e+01
1.499684835502373276e-02,1.392553901588424381e+01,7.904939102604934043e+00,-6.074460984115338746e+00,-9.284827020917602169e+01,-9.284826130104815434e+01,-9.284825417454581498e+01
1.527566058238072171e-02,1.408513659702668619e+01,8.064536683747387968e+00,-5.914863402972885709e+00,-9.290113386829585806e+01,-9.290112479455349614e+01,-9.290111753555960661e+01
1.555965631605074270e-02,1.424471911543675517e+01,8.224119202157469388e+00,-5.755280884562795407e+00,-9.295497525396136496e+01,-9.295496601152554206e+01,-9.295495861757686384e+01
1.584893192461113431e-02,1.440428600883929278e+01,8.383686095560022977e+00,-5.595713991160241818e+00,-9.300981225573801225e+01,-9.300980284147246380e+01,-9.300979531006004208e+01
1.614358556826486074e-02,1.456383669408669412e+01,8.543236780807438535e+00,-5.436163305912820931e+00,-9.306566307953445971e+01,-9.306565349024465661e+01,-9.306564581881283971e+01
1.644371723214931372e-02,1.472337056639299213e+01,8.702770653113745425e+00,-5.276629433606507824e+00,-9.312254625257013174e+01,-9.312253648500214354e+01,-9.312252867094774444e+01
1.674942876026437252e-02,1.488288699854050279e+01,8.862287085261272068e+00,-5.117113001458978516e+00,-9.318048062838417422e+01,-9.318047067922353222e+01,-9.318046271989503282e+01
1.706082389003123548e-02,1.504238534005811800e+01,9.021785426778905048e+00,-4.957614659941343760e+00,-9.323948539188364748e+01,-9.323947525775429312e+01,-9.323946715045083522e+01
1.737800828749375484e-02,1.520186491637030279e+01,9.181265003091102272e+00,-4.798135083629138542e+00,-9.329958006442899432e+01,-9.329956974189207131e+01,-9.329956148386260395e+01
1.770108958317421002e-02,1.536132502791574872e+01,9.340725114636562409e+00,-4.638674972083673076e+00,-9.336078450895385572e+01,-9.336077399450662995e+01,-9.336076558294891470e+01
1.803017740859568993e-02,1.552076494923476346e+01,9.500165035955594917e+00,-4.479235050764634352e+00,-9.342311893511720200e+01,-9.342310822519182523e+01,-9.342309965725156928e+01
1.836538343348346342e-02,1.568018392802425787e+01,9.659584014745107083e+00,-4.319816071975117744e+00,-9.348660390448446833e+01,-9.348659299544672763e+01,-9.348658426821656064e+01
1.870682140365800480e-02,1.583958118415934635e+01,9.818981270880211554e+00,-4.160418815840004392e+00,-9.355126033573469613e+01,-9.355124922388277753e+01,-9.355124033440129949e+01
1.905460717963247327e-02,1.599895590868037054e+01,9.978355995401253509e+00,-4.001044091318957996e+00,-9.361710950989028390e+01,-9.361709819145363554e+01,-9.361708913670432253e+01
1.940885877592778141e-02,1.615830726274429452e+01,1.013770734946519703e+01,-3.841692737255007373e+00,-9.368417307556605067e+01,-9.368416154670394747e+01,-9.368415232361425637e+01
1.976969640111861035e-02,1.631763437653927795e+01,1.029703446326020178e+01,-3.682365623460000847e+00,-9.375247305423309285e+01,-9.375246131103342861e+01,-9.375245191647370291e+01
2.013724249862388488e-02,1.647693634816117836e+01,1.045633643488212350e+01,-3.523063651838071131e+00,-9.382203184549385355e+01,-9.382201988397181935e+01,-9.382201031475419484e+01
2.051162178825565591e-02,1.663621224245089891e+01,1.061561232917186359e+01,-3.363787757548322599e+00,-9.389287223236350144e+01,-9.389286004846013611e+01,-9.389285030133750354e+01
2.089296130854039965e-02,1.679546108979114649e+01,1.077486117651213426e+01,-3.204538910208044378e+00,-9.396501738655275915e+01,-9.396500497613371294e+01,-9.396499504779855272e+01
2.128139045982712155e-02,1.695468188486148975e+01,1.093408197158250061e+01,-3.045318115137672255e+00,-9.403849087374723581e+01,-9.403847823260129246e+01,-9.403846811968459463e+01
2.167704104819695443e-02,1.711387358535025882e+01,1.109327367207129278e+01,-2.886126414648869876e+00,-9.411331665887763620e+01,-9.411330378271523500e+01,-9.411329348178536236e+01
2.208004733018900309e-02,1.727303511062203611e+01,1.125243519734309317e+01,-2.726964889377061052e+00,-9.418951911137445165e+01,-9.418950599582633743e+01,-9.418949550338786025e+01
2.249054605835780485e-02,1.743216534033930998e+01,1.141156542706039190e+01,-2.567834659659755214e+00,-9.426712301040144837e+01,-9.426710965101709405e+01,-9.426709896350962481e+01
2.290867652767772725e-02,1.759126311303691637e+01,1.157066319975802493e+01,-2.408736886962113743e+00,-9.434615355006069137e+01,-9.434613994230682010e+01,-9.434612905610377709e+01
2.333458062281001943e-02,1.775032722464777279e+01,1.172972731136890978e+01,-2.249672775351219567e+00,-9.442663634456184241e+01,-9.442662248382096379e+01,-9.442661139522826375e+01
2.376840286624876120e-02,1.790935642697852614e+01,1.188875651369969155e+01,-2.090643573020429802e+00,-9.450859743334831364e+01,-9.450858331491700426e+01,-9.450857202017201075e+01
2.421029046736177665e-02,1.806834942613351558e+01,1.204774951285471118e+01,-1.931650573865401288e+00,-9.459206328617166548e+01,-9.459204890525913356e+01,-9.459203740052912224e+01
2.466039337234338796e-02,1.822730488088562595e+01,1.220670496760685708e+01,-1.772695119113244733e+00,-9.467706080810570768e+01,-9.467704615983205940e+01,-9.467703444121316636e+01
2.511886431509579784e-02,1.838622140099240809e+01,1.236562148771366410e+01,-1.613778599006424397e+00,-9.476361734449095309e+01,-9.476360242388554411e+01,-9.476359048740124535e+01
2.558585886905645132e-02,1.854509754545588862e+01,1.252449763217718015e+01,-1.454902454542899015e+00,-9.485176068579926323e+01,-9.485174548779909287e+01,-9.485173332939898216e+01
2.606153549998894980e-02,1.870393182072454863e+01,1.268333190744587924e+01,-1.296068179274193266e+00,-9.494151907240865285e+01,-9.494150359185657351e+01,-9.494149120741491288e+01
2.654605561975538486e-02,1.886272267883572695e+01,1.284212276555709131e+01,-1.137277321162967869e+00,-9.503292119927650106e+01,-9.503290543091945608e+01,-9.503289281623382578e+01
2.703958364108843479e-02,1.902146851549690609e+01,1.300086860221830420e+01,-9.785314845017398788e-01,-9.512599622049970094e+01,-9.512598015898697668e+01,-9.512596730977686832e+01
2.754228703338166065e-02,1.918016766810411866e+01,1.315956775482556118e+01,-8.198323318944756855e-01,-9.522077375374907149e+01,-9.522075739363057778e+01,-9.522074430553581692e+01
2.805433637951713216e-02,1.933881841369589694e+01,1.331821850041737854e+01,-6.611815863026458961e-01,-9.531728388456487266e+01,-9.531726722028905385e+01,-9.531725388886846417e+01
2.857590543374946557e-02,1.949741896684096076e+01,1.347681905356247967e+01,-5.025810331575277790e-01,-9.541555717049878638e+01,-9.541554019641093021e+01,-9.541552661714075612e+01
2.910717118066605269e-02,1.965596747745800243e+01,1.363536756417956042e+01,-3.440325225404314291e-01,-9.551562464508833727e+01,-9.551560735542862801e+01,-9.551559352370097145e+01
2.964831389524342359e-02,1.981446202856581351e+01,1.379386211528741768e+01,-1.855379714325622598e-01,-9.561751782164725455e+01,-9.561750021054875504e+01,-9.561748612167008332e+01
3.019951720402016052e-02,1.997290063396206250e+01,1.395230072068371463e+01,-2.709936603625363871e-02,-9.572126869685548911e+01,-9.572125075834222230e+01,-9.572123640753173390e+01
3.076096814740707924e-02,2.013128123582893636e+01,1.411068132255063645e+01,1.312812358306834071e-01,-9.582690975413133572e+01,-9.582689148211620989e+01,-9.582687686450421438e+01
3.133285724315585524e-02,2.028960170226399384e+01,1.426900178898574190e+01,2.896017022658063933e-01,-9.593447396676685912e+01,-9.593445535504960731e+01,-9.593444046567591954e+01
3.191537855100761573e-02,2.044785982473442942e+01,1.442725991145623432e+01,4.478598247363151375e-01,-9.604399480080735430e+01,-9.604397584307245950e+01,-9.604396067688463745e+01
3.250872973854343484e-02,2.060605331545314201e+01,1.458545340217499486e+01,6.060533154550952206e-01,-9.615550621765412131e+01,-9.615548690746861382e+01,-9.615547145932032436e+01
3.311311214825911342e-02,2.076417980467479296e+01,1.474357989139670799e+01,7.641798046768227826e-01,-9.626904267636876966e+01,-9.626902300718009542e+01,-9.626900727182928108e+01
3.372873086588688840e-02,2.092223683791034006e+01,1.490163692463230660e+01,9.222368379124469273e-01,-9.638463913565621510e+01,-9.638461910079001882e+01,-9.638460307289719253e+01
3.435579478998746633e-02,2.108022187305824602e+01,1.505962195978027651e+01,1.080221873060428495e+00,-9.650233105550259438e+01,-9.650231064816041737e+01,-9.650229432228682924e+01
3.499451670283573040e-02,2.123813227745090870e+01,1.521753236417300315e+01,1.238132277453176444e+00,-9.662215439844234766e+01,-9.662213361169933989e+01,-9.662211698230510137e+01
3.564511334262442793e-02,2.139596532481468216e+01,1.537536541153683878e+01,1.395965324817030284e+00,-9.674414563042829229e+01,-9.674412445723089604e+01,-9.674410751867316094e+01
3.630780547701013827e-02,2.155371819214198581e+01,1.553311827886420460e+01,1.553718192144418975e+00,-9.686834172127673526e+01,-9.686832015444019817e+01,-9.686830290097115892e+01
3.698281797802662613e-02,2.171138795647411257e+01,1.569078804319639708e+01,1.711387956476638106e+00,-9.699478014465798026e+01,-9.699475817686402479e+01,-9.699474060262903663e+01
3.767037989839089329e-02,2.186897159159334691e+01,1.584837167831571136e+01,1.868971591595971038e+00,-9.712349887760225897e+01,-9.712347650139653865e+01,-9.712345860043211587e+01
3.837072454922788034e-02,2.202646596462311379e+01,1.600586605134554929e+01,2.026465964625834282e+00,-9.725453639948823081e+01,-9.725451360727778649e+01,-9.725449537350958451e+01
3.908408957924021376e-02,2.218386783253494698e+01,1.616326791925746065e+01,2.183867832537768727e+00,-9.738793169048067000e+01,-9.738790847453141453e+01,-9.738788990177214089e+01
3.981071705534973415e-02,2.234117383856126082e+01,1.632057392528385265e+01,2.341173838564188703e+00,-9.752372422938219643e+01,-9.752370058181620038e+01,-9.752368166376356839e+01
4.055085354483839444e-02,2.249838050851294469e+01,1.647778059523562533e+01,2.498380508515984477e+00,-9.766195399086193163e+01,-9.766192990365483695e+01,-9.766191063388934879e+01
4.130475019901614503e-02,2.265548424700090990e+01,1.663488433372367581e+01,2.655484247004065601e+00,-9.780266144202273892e+01,-9.780263690700104462e+01,-9.780261727898385971e+01
4.207266283844442178e-02,2.281248133356100638e+01,1.679188142028386110e+01,2.812481333564280650e+00,-9.794588753826695893e+01,-9.794586254710512208e+01,-9.794584255417588281e+01
4.285485203974396390e-02,2.296936791868171923e+01,1.694876800540466277e+01,2.969367918685112073e+00,-9.809167371841820682e+01,-9.809164826263597092e+01,-9.809162789801041527e+01
4.365158322401661156e-02,2.312614001973440736e+01,1.710554010645745393e+01,3.126140019737930320e+00,-9.824006189905615827e+01,-9.824003597001561161e+01,-9.824001522678338461e+01
4.446312674691089289e-02,2.328279351680592413e+01,1.726219360352906662e+01,3.282793516809578094e+00,-9.839109446801830927e+01,-9.839106805692088642e+01,-9.839104692804319541e+01
4.528975799036209088e-02,2.343932414843366985e+01,1.741872423515691537e+01,3.439324148437459261e+00,-9.854481427702145879e+01,-9.854478737490509843e+01,-9.854476585321224036e+01
4.613175745603794592e-02,2.359572750724358059e+01,1.757512759396693625e+01,3.595727507247513444e+00,-9.870126463335382994e+01,-9.870123723108977742e+01,-9.870121530927879405e+01
4.698941086052155908e-02,2.375199903549152225e+01,1.773139912221499159e+01,3.751999035495610091e+00,-9.886048929058637214e+01,-9.886046137887618102e+01,-9.886043904950831518e+01
4.786300923226385201e-02,2.390813402050904557e+01,1.788753410723262860e+01,3.908134020513282181e+00,-9.902253243825042262e+01,-9.902250400762281402e+01,-9.902248126312098009e+01
4.875284901033865442e-02,2.406412759005476332e+01,1.804352767677846714e+01,4.064127590059155359e+00,-9.918743869042670269e+01,-9.918740973123426841e+01,-9.918738656388056540e+01
4.965923214503362854e-02,2.421997470757283821e+01,1.819937479429666638e+01,4.219974707577395456e+00,-9.935525307318867760e+01,-9.935522357560462581e+01,-9.935519997753766575e+01
5.058246620031139895e-02,2.437567016736059600e+01,1.835507025408455561e+01,4.375670167365326435e+00,-9.952602101084131903e+01,-9.952599096485624841e+01,-9.952596692806845624e+01
5.152286445817564481e-02,2.453120858964752671e+01,1.851060867637162133e+01,4.531208589652435670e+00,-9.969978831089487414e+01,-9.969975770631323542e+01,-9.969973322264819160e+01
5.248074602497725810e-02,2.468658441558844530e+01,1.866598450231267492e+01,4.686584415593536335e+00,-9.987660114771047404e+01,-9.987656997414718774e+01,-9.987654503529684291e+01
5.345643593969716389e-02,2.484179190217404454e+01,1.882119198889841982e+01,4.841791902179327423e+00,-1.000565060447535188e+02,-1.000564742916304226e+02,-1.000564488891322554e+02
5.445026528424212059e-02,2.499682511706260968e+01,1.897622520378713418e+01,4.996825117068087074e+00,-1.002395498553881907e+02,-1.002395175119304582e+02,-1.002394916371645763e+02
5.546257129579107437e-02,2.515167793333699464e+01,1.913107802006167901e+01,5.151677933342684312e+00,-1.004257797421449965e+02,-1.004257467973774993e+02,-1.004257204415637830e+02
5.649369748123025253e-02,2.530634402419185847e+01,1.928574411091670271e+01,5.306344024197761300e+00,-1.006152431543917771e+02,-1.006152095971353049e+02,-1.006151827513304227e+02
5.754399373371569398e-02,2.546081685755638446e+01,1.944021694428140279e+01,5.460816857562509341e+00,-1.008079878043364488e+02,-1.008079536232039857e+02,-1.008079262782983250e+02
5.861381645140287255e-02,2.561508969065874197e+01,1.959448977738392728e+01,5.615089690665092448e+00,-1.010040616412886862e+02,-1.010040268246815032e+02,-1.010039989713961006e+02
5.970352865838369355e-02,2.576915556453885259e+01,1.974855565126421553e+01,5.769155564545441095e+00,-1.012035128241063120e+02,-1.012034773602100728e+02,-1.012034489890934168e+02
6.081350012787179599e-02,2.592300729851706009e+01,1.990240738524261488e+01,5.923007298523895514e+00,-1.014063896917506895e+02,-1.014063535685314292e+02,-1.014063246699563194e+02
6.194410750767814777e-02,2.607663748462691800e+01,2.005603757135267173e+01,6.076637484634016317e+00,-1.016127407318746236e+02,-1.016127039370745848e+02,-1.016126745012348493e+02
6.309573444801933051e-02,2.623003848202109367e+01,2.020943856874704636e+01,6.230038482028453117e+00,-1.018226145473650490e+02,-1.018225770684986173e+02,-1.018225470854057448e+02
6.426877173170197910e-02,2.638320241136034028e+01,2.036260249808650258e+01,6.383202411367977724e+00,-1.020360598207625458e+02,-1.020360216451119726e+02,-1.020359911045917727e+02
6.546361740672750062e-02,2.653612114919640774e+01,2.051552123592278321e+01,6.536121149204330294e+00,-1.022531252764789400e+02,-1.022530863910900365e+02,-1.022530552827791865e+02
6.668067692136221691e-02,2.668878632236054571e+01,2.066818640908714855e+01,6.688786322368764914e+00,-1.024738596407341475e+02,-1.024738200324119077e+02,-1.024737883457543433e+02
6.792036326171846383e-02,2.684118930237043799e+01,2.082058938909727175e+01,6.841189302378962722e+00,-1.026983115991336462e+02,-1.026982712544377279e+02,-1.026982389786812178e+02
6.918309709189363055e-02,2.699332119986932810e+01,2.097272128659641055e+01,6.993321199878177907e+00,-1.029265297518083742e+02,-1.029264886570485515e+02,-1.029264557812409180e+02
7.046930689671467019e-02,2.714517285911228583e+01,2.112457294583961698e+01,7.145172859121464271e+00,-1.031585625660396062e+02,-1.031585207072711796e+02,-1.031584872202566174e+02
7.177942912713615453e-02,2.729673485251547760e+01,2.127613493924307164e+01,7.296734852525000647e+00,-1.033944583262928489e+02,-1.033944156893117849e+02,-1.033943815797271668e+02
7.311390834834172181e-02,2.744799747528583822e+01,2.142739756201369516e+01,7.447997475295720093e+00,-1.036342650815859656e+02,-1.036342216519242214e+02,-1.036341869081951188e+02
7.447319739059889143e-02,2.759895074014935545e+01,2.157835082687750017e+01,7.598950740159608586e+00,-1.038780305901196499e+02,-1.038779863530402139e+02,-1.038779509633769607e+02
7.585775750291835762e-02,2.774958437219775220e+01,2.172898445892618824e+01,7.749584372208387251e+00,-1.041258022611003042e+02,-1.041257572015921653e+02,-1.041257211539859497e+02
7.726805850957021993e-02,2.789988780387443157e+01,2.187928789060316959e+01,7.899887803885468074e+00,-1.043776270936890427e+02,-1.043775811964621170e+02,-1.043775444786808464e+02
7.870457896950984467e-02,2.804985017012201354e+01,2.202925025685106419e+01,8.049850170133465710e+00,-1.046335516130142764e+02,-1.046335048624941919e+02,-1.046334674620784284e+02
8.016780633876789686e-02,2.819946030371504264e+01,2.217886039044442015e+01,8.199460303726928245e+00,-1.048936218031900296e+02,-1.048935741835128965e+02,-1.048935360877714942e+02
8.165823713585922128e-02,2.834870673080291681e+01,2.232810681753262827e+01,8.348706730815241173e+00,-1.051578830372869078e+02,-1.051578345322938901e+02,-1.051577957282997460e+02
8.317637711026708291e-02,2.849757766668938430e+01,2.247697775341944393e+01,8.497577666702172294e+00,-1.054263800042090651e+02,-1.054263305974408951e+02,-1.054262910720266291e+02
8.472274141405965187e-02,2.864606101187648335e+01,2.262546109860691246e+01,8.646061011889749182e+00,-1.056991566324371519e+02,-1.056991063071285879e+02,-1.056990660468820096e+02
8.629785477669701943e-02,2.879414434840210646e+01,2.277354443513291216e+01,8.794144348415875001e+00,-1.059762560106045868e+02,-1.059762047496787147e+02,-1.059761637409382615e+02
8.790225168308841985e-02,2.894181493650189907e+01,2.292121502323308846e+01,8.941814936516180978e+00,-1.062577203048832644e+02,-1.062576680909456002e+02,-1.062576263197957616e+02
8.953647655495937385e-02,2.908905971162742077e+01,2.306845979835902227e+01,9.089059711642240913e+00,-1.065435906731639477e+02,-1.065435374884967246e+02,-1.065434949407632104e+02
9.120108393559096804e-02,2.923586528185424527e+01,2.321526536858626955e+01,9.235865281869621413e+00,-1.068339071760274948e+02,-1.068338530025834814e+02,-1.068338096638285322e+02
9.289663867799362318e-02,2.938221792571448887e+01,2.336161801244694658e+01,9.382217925730440555e+00,-1.071287086845136685e+02,-1.071286535039101722e+02,-1.071286093594275997e+02
9.462371613657930003e-02,2.952810359049014366e+01,2.350750367722305612e+01,9.528103590506697529e+00,-1.074280327847077388e+02,-1.074279765782202247e+02,-1.074279316130304522e+02
9.638290236239706321e-02,2.967350789100443365e+01,2.365290797773781861e+01,9.673507891021607463e+00,-1.077319156791774333e+02,-1.077318584277332860e+02,-1.077318126265782183e+02
9.817479430199843593e-02,2.981841610894974792e+01,2.379781619568362316e+01,9.818416108967563005e+00,-1.080403920853086817e+02,-1.080403337694807107e+02,-1.080402871168185897e+02
1.000000000000000056e-01,2.996281319279184885e+01,2.394221327952622858e+01,9.962813192810335394e+00,-1.083534951306034770e+02,-1.083534357306033229e+02,-1.083533882106034270e+02
1.018591388054116975e-01,3.010668375829091659e+01,2.408608384502582567e+01,1.010668375831009946e+01,-1.086712562450206576e+02,-1.086711957406920703e+02,-1.086711473372293995e+02
1.037528415818012584e-01,3.025001208968102517e+01,2.422941217641647071e+01,1.025001208970092392e+01,-1.089937050504580327e+02,-1.089936434212699936e+02,-1.089935941179197698e+02
1.056817509213658496e-01,3.039278214155016400e+01,2.437218222828618508e+01,1.039278214157081059e+01,-1.093208692474941728e+02,-1.093208064725339597e+02,-1.093207562525660279e+02
1.076465213629834994e-01,3.053497754146381737e+01,2.451437762820042110e+01,1.053497754148524024e+01,-1.096527744995278368e+02,-1.096527105574939753e+02,-1.096526594038671618e+02
1.096478196143185202e-01,3.067658159337508650e+01,2.465598168011230129e+01,1.067658159339731228e+01,-1.099894443144754348e+02,-1.099893791836703940e+02,-1.099893270790266513e+02
1.116863247780561230e-01,3.081757728186497403e+01,2.479697736860281765e+01,1.081757728188803114e+01,-1.103308999242085093e+02,-1.103308335825313975e+02,-1.103307805091900065e+02
1.137627285823430978e-01,3.095794727725608197e+01,2.493734736399458285e+01,1.095794727728000950e+01,-1.106771601619379766e+02,-1.106770925868769950e+02,-1.106770385268285395e+02
1.158777356155126226e-01,3.109767394164290621e+01,2.507707402838208566e+01,1.109767394166772547e+01,-1.110282413377754693e+02,-1.110281725064003382e+02,-1.110281174413005232e+02
1.180320635651729844e-01,3.123673933588125706e+01,2.521613942262113994e+01,1.123673933590700891e+01,-1.113841571127287011e+02,-1.113840870016827722e+02,-1.113840309128463275e+02
1.202264434617413141e-01,3.137512522757859657e+01,2.535452531431921130e+01,1.137512522760531652e+01,-1.117449183714129930e+02,-1.117448469569054055e+02,-1.117447898252996481e+02
1.224616199265049082e-01,3.151281310012586090e+01,2.549221318686723947e+01,1.151281310015358272e+01,-1.121105330937893143e+02,-1.121104603515869087e+02,-1.121104021578253054e+02
1.247383514242943192e-01,3.164978416280987616e+01,2.562918424955203989e+01,1.164978416283863716e+01,-1.124810062262657055e+02,-1.124809321316848525e+02,-1.124808728560204116e+02
1.270574105208542026e-01,3.178601936204366396e+01,2.576541944878664836e+01,1.178601936207350676e+01,-1.128563395525279986e+02,-1.128562640804260013e+02,-1.128562037027447218e+02
1.294195841449986284e-01,3.192149939374970913e+01,2.590089948049353552e+01,1.192149939378066748e+01,-1.132365315644924522e+02,-1.132364546892593182e+02,-1.132363931890731408e+02
1.318256738556407293e-01,3.205620471692854068e+01,2.603560480367325169e+01,1.205620471696066609e+01,-1.136215773338031454e+02,-1.136214990293527194e+02,-1.136214363857927054e+02
1.342764961137864199e-01,3.219011556844220223e+01,2.616951565518782274e+01,1.219011556847553202e+01,-1.140114683843231944e+02,-1.140113886240843613e+02,-1.140113248158936159e+02
1.367728825595849462e-01,3.232321197903828391e+01,2.630261206578485655e+01,1.232321197907286781e+01,-1.144061925660975021e+02,-1.144061113230051063e+02,-1.144060463285315308e+02
1.393156802945303419e-01,3.245547379063688709e+01,2.643487387738444028e+01,1.245547379067276239e+01,-1.148057339312912717e+02,-1.148056511777769941e+02,-1.148055849749659814e+02
1.419057521689092716e-01,3.258688067489778462e+01,2.656628076164636454e+01,1.258688067493500817e+01,-1.152100726126347467e+02,-1.152099883206177822e+02,-1.152099208870045857e+02
1.445439770745927111e-01,3.271741215308099981e+01,2.669681223983063845e+01,1.271741215311962669e+01,-1.156191847049289407e+02,-1.156190988458063629e+02,-1.156190301585086786e+02
1.472312502432718551e-01,3.284704761720809785e+01,2.682644770395883427e+01,1.284704761724817246e+01,-1.160330421501907807e+02,-1.160329546948279784e+02,-1.160328847305381004e+02
1.499684835502373137e-01,3.297576635252605115e+01,2.695516643927792444e+01,1.297576635256762856e+01,-1.164516126270365817e+02,-1.164515235457571976e+02,-1.164514522807340455e+02
1.527566058238072344e-01,3.310354756126937303e+01,2.708294764802242938e+01,1.310354756131251008e+01,-1.168748594449224356e+02,-1.168747687074983901e+02,-1.168746961175595658e+02
1.555965631605074340e-01,3.323037038770942786e+01,2.720977047446370278e+01,1.323037038775417962e+01,-1.173027414438760303e+02,-1.173026490195173608e+02,-1.173025750800307492e+02
1.584893192461113431e-01,3.335621394447284160e+01,2.733561403122839550e+01,1.335621394451927735e+01,-1.177352129003677277e+02,-1.177351187577119305e+02,-1.177350434435876565e+02
1.614358556826486213e-01,3.348105734010356827e+01,2.746045742686043667e+01,1.348105734015174129e+01,-1.181722234399794047e+02,-1.181721275470809616e+02,-1.181720508327625936e+02
1.644371723214931580e-01,3.360487970783515976e+01,2.758427979459339952e+01,1.360487970788514644e+01,-1.186137179575350302e+02,-1.186136202818545087e+02,-1.186135421413104751e+02
1.674942876026437322e-01,3.372766023553197812e+01,2.770706032229163540e+01,1.372766023558383353e+01,-1.190596365453602772e+02,-1.190595370537532602e+02,-1.190594574604680247e+02
1.706082389003123478e-01,3.384937819674926374e+01,2.782877828351040250e+01,1.384937819680307491e+01,-1.195099144303355985e+02,-1.195098130890415291e+02,-1.195097320160066374e+02
1.737800828749375415e-01,3.397001298285386639e+01,2.794941306961653282e+01,1.397001298290968485e+01,-1.199644819204016102e+02,-1.199643786950321953e+02,-1.199642961147370670e+02
1.770108958317421211e-01,3.408954413613801648e+01,2.806894422290226743e+01,1.408954413619593460e+01,-1.204232643611627225e+02,-1.204231592166904079e+02,-1.204230751011129428e+02
1.803017740859569062e-01,3.420795138385032175e+01,2.818735147061622115e+01,1.420795138391041590e+01,-1.208861821032191841e+02,-1.208860750039652032e+02,-1.208859893245623738e+02
1.836538343348346480e-01,3.432521467305865315e+01,2.830461475982625430e+01,1.432521467312099439e+01,-1.213531504808350263e+02,-1.213530413904572782e+02,-1.213529541181554237e+02
1.870682140365800550e-01,3.444131420625103601e+01,2.842071429302041707e+01,1.444131420631572382e+01,-1.218240798025210978e+02,-1.218239686840017697e+02,-1.218238797891867051e+02
1.905460717963247397e-01,3.455623047757200794e+01,2.853563056434322931e+01,1.455623047763912226e+01,-1.222988753540793709e+02,-1.222987621697125888e+02,-1.222986716222194872e+02
1.940885877592778419e-01,3.466994430958303042e+01,2.864934439635615604e+01,1.466994430965266361e+01,-1.227774374146149370e+02,-1.227773221259936207e+02,-1.227772298950969514e+02
1.976969640111860826e-01,3.478243689042779607e+01,2.876183697720290411e+01,1.478243689050004406e+01,-1.232596612859762644e+02,-1.232595438539794515e+02,-1.232594499083823933e+02
2.013724249862388627e-01,3.489368981127525871e+01,2.887308989805241666e+01,1.489368981135021208e+01,-1.237454373360341577e+02,-1.237453177208135600e+02,-1.237452220286374285e+02
2.051162178825565729e-01,3.500368510390590160e+01,2.898308519068519473e+01,1.500368510398367050e+01,-1.242346510561520319e+02,-1.242345292171184354e+02,-1.242344317458919249e+02
2.089296130854039757e-01,3.511240527830045721e+01,2.909180536508196013e+01,1.511240527838114645e+01,-1.247271831331386949e+02,-1.247270590289483607e+02,-1.247269597455964600e+02
2.128139045982712363e-01,3.521983336008386800e+01,2.919923344686766598e+01,1.521983336016758770e+01,-1.252229095359070783e+02,-1.252227831244475595e+02,-1.252226819952803254e+02
2.167704104819695166e-01,3.532595292767258854e+01,2.930535301445876684e+01,1.532595292775944351e+01,-1.257217016169898187e+02,-1.257215728553658352e+02,-1.257214698460669808e+02
2.208004733018900378e-01,3.543074814896877456e+01,2.941014823575741843e+01,1.543074814905889092e+01,-1.262234262289869378e+02,-1.262232950735056392e+02,-1.262231901491209243e+02
2.249054605835781873e-01,3.553420381744187750e+01,2.951360390423308999e+01,1.553420381753537960e+01,-1.267279458559390406e+02,-1.267278122620952701e+02,-1.267277053870206487e+02
2.290867652767773488e-01,3.563630538743571208e+01,2.961570547422958199e+01,1.563630538753271892e+01,-1.272351187595372721e+02,-1.272349826819985310e+02,-1.272348738199678877e+02
2.333458062281003331e-01,3.573703900853816151e+01,2.971643909533478478e+01,1.573703900863881344e+01,-1.277447991399934182e+02,-1.277446605325843336e+02,-1.277445496466574468e+02
2.376840286624877230e-01,3.583639155885072825e+01,2.981579164565021145e+01,1.583639155895515138e+01,-1.282568373113062137e+02,-1.282566961269930630e+02,-1.282565831795428437e+02
2.421029046736178914e-01,3.593435067699638807e+01,2.991375076379884490e+01,1.593435067710473518e+01,-1.287710798905705474e+02,-1.287709360814450008e+02,-1.287708210341449444e+02
2.466039337234340045e-01,3.603090479270696989e+01,3.001030487951251047e+01,1.603090479281938840e+01,-1.292873700008855735e+02,-1.292872235181487781e+02,-1.292871063319596772e+02
2.511886431509580686e-01,3.612604315583492109e+01,3.010544324264365201e+01,1.612604315595154958e+01,-1.298055474873300739e+02,-1.298053982812758704e+02,-1.298052789164328829e+02
2.558585886905645479e-01,3.621975586363967636e+01,3.019915595045172552e+01,1.621975586376068179e+01,-1.303254491453845958e+02,-1.303252971653827217e+02,-1.303251755813815862e+02
2.606153549998895258e-01,3.631203388620532024e+01,3.029143397302080487e+01,1.631203388633086604e+01,-1.308469089610949538e+02,-1.308467541555739047e+02,-1.308466303111574405e+02
2.654605561975538763e-01,3.640286908985368086e+01,3.038226917667273952e+01,1.640286908998394111e+01,-1.313697583621900264e+02,-1.313696006786194630e+02,-1.313694745317633874e+02
2.703958364108843271e-01,3.649225425842629278e+01,3.047165434524905692e+01,1.649225425856144511e+01,-1.318938264792882649e+02,-1.318936658641612780e+02,-1.318935373720600808e+02
2.754228703338166273e-01,3.658018311231838027e+01,3.055958319914498134e+01,1.658018311245859877e+01,-1.324189404162550829e+02,-1.324187768150699185e+02,-1.324186459341221678e+02
2.805433637951713077e-01,3.666665032515939515e+01,3.064605041198998592e+01,1.666665032530487878e+01,-1.329449255287057952e+02,-1.329447588859475502e+02,-1.329446255717412555e+02
2.857590543374946557e-01,3.675165153804685758e+01,3.073105162488158371e+01,1.675165153819780173e+01,-1.334716057095893120e+02,-1.334714359687108356e+02,-1.334713001760084694e+02
2.910717118066605269e-01,3.683518337125288156e+01,3.081458345809189581e+01,1.683518337140948873e+01,-1.339988036807335732e+02,-1.339986307841365942e+02,-1.339984924668593749e+02
2.964831389524342220e-01,3.691724343333714131e+01,3.089664352018061422e+01,1.691724343349962467e+01,-1.345263412891899009e+02,-1.345261651782052184e+02,-1.345260242894178475e+02
3.019951720402015982e-01,3.699783032761409629e+01,3.097723041446218772e+01,1.699783032778267611e+01,-1.350540398071765935e+02,-1.350538604220442380e+02,-1.350537169139387288e+02
3.076096814740708063e-01,3.707694365593732755e+01,3.105634374279020804e+01,1.707694365611223475e+01,-1.355817202343939414e+02,-1.355815375142429673e+02,-1.355813913381225859e+02
3.133285724315585385e-01,3.715458401977934244e+01,3.113398410663719318e+01,1.715458401996081150e+01,-1.361092036014659925e+02,-1.361090174842937870e+02,-1.361088685905563693e+02
3.191537855100761711e-01,3.723075301860052377e+01,3.121015310546354016e+01,1.723075301878880339e+01,-1.366363112732543925e+02,-1.366361216959056151e+02,-1.366359700340269967e+02
3.250872973854344039e-01,3.730545324551669495e+01,3.128485333238506527e+01,1.730545324571204802e+01,-1.371628652507918105e+02,-1.371626721489370198e+02,-1.371625176674535282e+02
3.311311214825911065e-01,3.737868828029014168e+01,3.135808836716406489e+01,1.737868828049282399e+01,-1.376886884705916998e+02,-1.376884917787053837e+02,-1.376883344251966719e+02
3.372873086588689118e-01,3.745046267968427856e+01,3.142986276656396427e+01,1.745046267989457078e+01,-1.382136051001126020e+02,-1.382134047514511224e+02,-1.382132444725222342e+02
3.435579478998746494e-01,3.752078196523709153e+01,3.150018205212274935e+01,1.752078196545526367e+01,-1.387374408281839351e+02,-1.387372367547627050e+02,-1.387370734960261132e+02
3.499451670283573179e-01,3.758965260852258439e+01,3.156905269541445236e+01,1.758965260874895264e+01,-1.392600231492380374e+02,-1.392598152818086987e+02,-1.392596489878655461e+02
3.564511334262442932e-01,3.765708201398349786e+01,3.163648210088179979e+01,1.765708201421836065e+01,-1.397811816402408169e+02,-1.397809699082673944e+02,-1.397808005226890202e+02
3.630780547701014105e-01,3.772307849943099711e+01,3.170247858633597104e+01,1.772307849967467064e+01,-1.403007482292667021e+02,-1.403005325609020133e+02,-1.403003600262105977e+02
3.698281797802662751e-01,3.778765127431935156e+01,3.176705136123125328e+01,1.778765127457216622e+01,-1.408185574547268573e+02,-1.408183377767878994e+02,-1.408181620344371083e+02
3.767037989839089884e-01,3.785081041591445228e+01,3.183021050283354469e+01,1.785081041617675623e+01,-1.413344467143261056e+02,-1.413342229522693287e+02,-1.413340439426243051e+02
3.837072454922788589e-01,3.791256684348470429e+01,3.189196693041125741e+01,1.791256684375685992e+01,-1.418482565028991473e+02,-1.418480285807951589e+02,-1.418478462431123432e+02
3.908408957924021099e-01,3.797293229065178366e+01,3.195233237758607459e+01,1.797293229093414979e+01,-1.423598306383553904e+02,-1.423595984788631199e+02,-1.423594127512696730e+02
3.981071705534973137e-01,3.803191927604594724e+01,3.201131936298826730e+01,1.803191927633891112e+01,-1.428690164750432530e+02,-1.428687799993837757e+02,-1.428685908188565463e+02
4.055085354483839444e-01,3.808954107241702047e+01,3.206894115936766809e+01,1.808954107272097289e+01,-1.433756651039325618e+02,-1.433754242318623540e+02,-1.433752315342065629e+02
4.130475019901613809e-01,3.814581167435681408e+01,3.212521176131610190e+01,1.814581167467217426e+01,-1.438796315391000746e+02,-1.438793861888837569e+02,-1.438791899087110266e+02
4.207266283844441901e-01,3.820074576479265716e+01,3.218014585176091202e+01,1.820074576511985853e+01,-1.443807748900929653e+02,-1.443805249784755347e+02,-1.443803250491819767e+02
4.285485203974396251e-01,3.825435868041375898e+01,3.223375876739131485e+01,1.825435868075323498e+01,-1.448789585198355496e+02,-1.448787039620142707e+02,-1.448785003157576057e+02
4.365158322401661573e-01,3.830666637619333414e+01,3.228606646318053919e+01,1.830666637654555018e+01,-1.453740501878325233e+02,-1.453737908974279947e+02,-1.453735834651047867e+02
4.446312674691088040e-01,3.835768538916940429e+01,3.233708547616662088e+01,1.835768538953483642e+01,-1.458659221785106013e+02,-1.458656580675375949e+02,-1.458654467787595195e+02
4.528975799036208949e-01,3.840743280164553397e+01,3.238683288865314580e+01,1.840743280202467957e+01,-1.463544514146268227e+02,-1.463541823934642423e+02,-1.463539671765344679e+02
4.613175745603795286e-01,3.845592620397064110e+01,3.243532629098902476e+01,1.845592620436401887e+01,-1.468395195557533555e+02,-1.468392455331139104e+02,-1.468390263150026840e+02
4.698941086052153548e-01,3.850318365705339829e+01,3.248258374408297300e+01,1.850318365746153759e+01,-1.473210130819303458e+02,-1.473207339648296852e+02,-1.473205106711494921e+02
4.786300923226382564e-01,3.854922365476233637e+01,3.252862374180351424e+01,1.854922365518578786e+01,-1.477988233626525414e+02,-1.477985390563775070e+02,-1.477983116113579172e+02
4.875284901033862806e-01,3.859406508635743194e+01,3.257346517341064640e+01,1.859406508679677827e+01,-1.482728467114274622e+02,-1.482725571195041709e+02,-1.482723254459659188e+02
4.965923214503361049e-01,3.863772719909297848e+01,3.261712728615868429e+01,1.863772719954880941e+01,-1.487429844262090057e+02,-1.487426894503698804e+02,-1.487424534696990008e+02
5.058246620031140450e-01,3.868022956112454835e+01,3.265962964820321446e+01,1.868022956159749270e+01,-1.492091428160715338e+02,-1.492088423562221635e+02,-1.492086019883429913e+02
5.152286445817564342e-01,3.872159202484582607e+01,3.270099211193793565e+01,1.872159202533651623e+01,-1.496712332145454809e+02,-1.496709271687304295e+02,-1.496706823320787692e+02
5.248074602497725394e-01,3.876183469077278687e+01,3.274123477787884440e+01,1.876183469128189074e+01,-1.501291719800849194e+02,-1.501288602444534206e+02,-1.501286108559485228e+02
5.345643593969716667e-01,3.880097787208489990e+01,3.278037795920543829e+01,1.880097787261311026e+01,-1.505828804841819135e+02,-1.505825629529522871e+02,-1.505823089279689384e+02
5.445026528424211643e-01,3.883904205992417502e+01,3.281844214705972718e+01,1.883904206047220953e+01,-1.510322850876809753e+02,-1.510319616531050428e+02,-1.510317029054446039e+02
5.546257129579107437e-01,3.887604788954418211e+01,3.285544797669531647e+01,1.887604789011278328e+01,-1.514773171058794787e+02,-1.514769876582058430e+02,-1.514767241000672868e+02
5.649369748123025392e-01,3.891201610739238248e+01,3.289141619455968879e+01,1.891201610798232480e+01,-1.519179127630261235e+02,-1.519175771904629357e+02,-1.519173087324127494e+02
5.754399373371569260e-01,3.894696753920009513e+01,3.292636762638417025e+01,1.894696753981217086e+01,-1.523540131368511936e+02,-1.523536713255282677e+02,-1.523533978764702965e+02
5.861381645140287810e-01,3.898092305914551758e+01,3.296032314634700100e+01,1.898092305978057226e+01,-1.527855640937782198e+02,-1.527852159277083501e+02,-1.527849373948527898e+02
5.970352865838368661e-01,3.901390356014666594e+01,3.299330364736619714e+01,1.901390356080554866e+01,-1.532125162154765974e+02,-1.532121615765162517e+02,-1.532118778653483275e+02
6.081350012787178905e-01,3.904592992533213192e+01,3.302533001257038592e+01,1.904592992601574153e+01,-1.536348247174214237e+02,-1.536344634852305262e+02,-1.536341744994781493e+02
6.194410750767814777e-01,3.907702300072965329e+01,3.305642308798735485e+01,1.907702300143891705e+01,-1.540524493601263032e+02,-1.540520814121275635e+02,-1.540517870537289298e+02
6.309573444801933606e-01,3.910720356920407426e+01,3.308660365648193391e+01,1.910720356993995139e+01,-1.544653543537140195e+02,-1.544649795650512658e+02,-1.544646797341214040e+02
6.426877173170196800e-01,3.913649232566864100e+01,3.311589241296742614e+01,1.913649232643213693e+01,-1.548735082564797949e+02,-1.548731264999755979e+02,-1.548728210947725472e+02
6.546361740672750340e-01,3.916490985358640131e+01,3.314430994090689353e+01,1.916490985437854988e+01,-1.552768838680940462e+02,-1.552764950142065175e+02,-1.552761839310968526e+02
6.668067692136222524e-01,3.919247660277112288e+01,3.317187669011413220e+01,1.919247660359299701e+01,-1.556754581180752268e+02,-1.556750620348541929e+02,-1.556747451682776955e+02
6.792036326171846383e-01,3.921921286849097044e+01,3.319861295585734950e+01,1.921921286934369277e+01,-1.560692119501479453e+02,-1.560688085031900414e+02,-1.560684857456240593e+02
6.918309709189366385e-01,3.924513877187193600e+01,3.322453885926255879e+01,1.924513877275666118e+01,-1.564581302030810832e+02,-1.564577192554842497e+02,-1.564573904974070899e+02
7.046930689671468961e-01,3.927027424159224722e+01,3.324967432900802322e+01,1.927027424251017607e+01,-1.568422014885799172e+02,-1.568417829008968454e+02,-1.568414480307507120e+02
7.177942912713618506e-01,3.929463899685399753e+01,3.327403908429586465e+01,1.929463899780636638e+01,-1.572214180667818368e+02,-1.572209916969727317e+02,-1.572206506011257261e+02
7.311390834834176067e-01,3.931825253161333933e+01,3.329765261908228524e+01,1.931825253260144848e+01,-1.575957757198811748e+02,-1.575953414232655234e+02,-1.575949939859732751e+02
7.447319739059892196e-01,3.934113410004648159e+01,3.332053418754352236e+01,1.934113410107168107e+01,-1.579652736243820073e+02,-1.579648312535893808e+02,-1.579644773569556548e+02
7.585775750291839925e-01,3.936330270322470426e+01,3.334270279075089150e+01,1.936330270428836897e+01,-1.583299142224503555e+02,-1.583294636273706715e+02,-1.583291031513072369e+02
7.726805850957025879e-01,3.938477707696836916e+01,3.336417716452479709e+01,1.938477707807195571e+01,-1.586897030928107313e+02,-1.586892441205430941e+02,-1.586888769427292800e+02
7.870457896950989740e-01,3.940557568084700080e+01,3.338497576843480630e+01,1.940557568199200844e+01,-1.590446488216022942e+02,-1.590441813164031544e+02,-1.590438073122440983e+02
8.016780633876793294e-01,3.942571668828976783e+01,3.340511677591013040e+01,1.942571668947774910e+01,-1.593947628735828346e+02,-1.593942866768130955e+02,-1.593939057193975941e+02
8.165823713585927957e-01,3.944521797776878458e+01,3.342461806542291924e+01,1.944521797900134530e+01,-1.597400594640399731e+02,-1.597395744141113028e+02,-1.597391863741686677e+02
8.317637711026708569e-01,3.946409712501573352e+01,3.344349721270490505e+01,1.946409712629454702e+01,-1.600805554317415442e+02,-1.600800613640614358e+02,-1.600796661099176390e+02
8.472274141405963244e-01,3.948237139623099523e+01,3.346177148395653234e+01,1.948237139755779879e+01,-1.604162701132292170e+02,-1.604157668601451405e+02,-1.604153642576781920e+02
8.629785477669702498e-01,3.950005774224331390e+01,3.347945783000656661e+01,1.950005774361991229e+01,-1.607472252187325807e+02,-1.607467126094751393e+02,-1.607463025220694988e+02
8.790225168308842818e-01,3.951717279357727364e+01,3.349657288137966304e+01,1.951717279500553204e+01,-1.610734447099549413e+02,-1.610729225705798626e+02,-1.610725048590801123e+02
8.953647655495936553e-01,3.953373285638546264e+01,3.351313294422845956e+01,1.953373285786732083e+01,-1.613949546799566974e+02,-1.613944228332859154e+02,-1.613939973559495513e+02
9.120108393559096527e-01,3.954975390920183997e+01,3.352915399708696498e+01,1.954975391073931235e+01,-1.617117832353374922e+02,-1.617112415008988648e+02,-1.617108081133482642e+02
9.289663867799362595e-01,3.956525160047298328e+01,3.354465168840182088e+01,1.956525160206815173e+01,-1.620239603808947777e+02,-1.620234085748609800e+02,-1.620229671300342602e+02
9.462371613657929448e-01,3.958024124682398082e+01,3.355964133479817235e+01,1.958024124847901959e+01,-1.623315179069145699e+02,-1.623309558420406802e+02,-1.623305061901418469e+02
9.638290236239704933e-01,3.959473783201637076e+01,3.357413792003762154e+01,1.959473783373351807e+01,-1.626344892792284895e+02,-1.626339167647884096e+02,-1.626334587532366527e+02
9.817479430199843593e-01,3.960875600655588613e+01,3.358815609462595120e+01,1.960875600833747612e+01,-1.629329095321506600e+02,-1.629323263738724563e+02,-1.629318598472501947e+02
1.000000000000000000e+00,3.962231008790875819e+01,3.360171017602947785e+01,1.962231008975721025e+01,-1.632268151643899330e+02,-1.632262211643899263e+02,-1.632257459643901427e+02
1.018591388054116864e+00,3.963541406128614852e+01,3.361481414945941282e+01,1.963541406320396732e+01,-1.635162440380141504e+02,-1.635156389947296418e+02,-1.635151549601022793e+02
1.037528415818012695e+00,3.964808158095716095e+01,3.362748166918495940e+01,1.964808158294695062e+01,-1.638012352805268392e+02,-1.638006189886478410e+02,-1.638001259551448925e+02
1.056817509213658468e+00,3.966032597205230559e+01,3.363972606033667034e+01,1.966032597411676619e+01,-1.640818291901011321e+02,-1.640812014405006778e+02,-1.640806992408205645e+02
1.076465213629834938e+00,3.967216023282011861e+01,3.365156032116318130e+01,1.967216023496205679e+01,-1.643580671440014953e+02,-1.643574277236646139e+02,-1.643569161873953419e+02
1.096478196143185091e+00,3.968359703730126142e+01,3.366299712570521763e+01,1.968359703952358331e+01,-1.646299915102098623e+02,-1.646293402021613588e+02,-1.646288191557228231e+02
1.116863247780561119e+00,3.969464873838542474e+01,3.367404882685256950e+01,1.969464874069115723e+01,-1.648976455622614594e+02,-1.648969821454923022e+02,-1.648964514120771980e+02
1.137627285823431089e+00,3.970532737121804701e+01,3.368472745975073934e+01,1.970532737361029874e+01,-1.651610733972836158e+02,-1.651603976466759036e+02,-1.651598570461899271e+02
1.158777356155126226e+00,3.971564465692482315e+01,3.369504474552552864e+01,1.971564465940685906e+01,-1.654203198572211875e+02,-1.654196315434716951e+02,-1.654190808924723228e+02
1.180320635651729733e+00,3.972561200662400438e+01,3.370501209529527387e+01,1.972561200919917823e+01,-1.656754304532224467e+02,-1.656747293427649481e+02,-1.656741684543991369e+02
1.202264434617413169e+00,3.973524052569712950e+01,3.371464061444160620e+01,1.973524052836894782e+01,-1.659264512931517856e+02,-1.659257371480777294e+02,-1.659251658320186493e+02
1.224616199265048833e+00,3.974454101829104502e+01,3.372394110711148585e+01,1.974454102106313513e+01,-1.661734290121875404e+02,-1.661727015901652749e+02,-1.661721196525476500e+02
1.247383514242943248e+00,3.975352399202479603e+01,3.373292408092405026e+01,1.975352399490091670e+01,-1.664164107064565314e+02,-1.664156697606491662e+02,-1.664150770040035070e+02
1.270574105208541971e+00,3.976219966287685281e+01,3.374159975185787630e+01,1.976219966586090848e+01,-1.666554438696519185e+02,-1.666546891486335369e+02,-1.666540853718190078e+02
1.294195841449986339e+00,3.977057796022926794e+01,3.374997804929513023e+01,1.977057796332531225e+01,-1.668905763325750229e+02,-1.668898075802453604e+02,-1.668891925783817953e+02
1.318256738556407237e+00,3.977866853204672282e+01,3.375806862120060714e+01,1.977866853525895507e+01,-1.671218562055378527e+02,-1.671210731610353264e+02,-1.671204467254334531e+02
1.342764961137864255e+00,3.978648075016985075e+01,3.376588083941506113e+01,1.978648075350263369e+01,-1.673493318235592540e+02,-1.673485342211725424e+02,-1.673478961392632982e+02
1.367728825595849518e+00,3.979402371570340335e+01,3.377342380504337171e+01,1.979402371916126313e+01,-1.675730516942846293e+02,-1.675722392633624906e+02,-1.675715893186248309e+02
1.393156802945303863e+00,3.980130626448114128e+01,3.378070635391941323e+01,1.980130626806876748e+01,-1.677930644485560663e+02,-1.677922369134153371e+02,-1.677915748853028788e+02
1.419057521689092605e+00,3.980833697259036796e+01,3.378773706213064543e+01,1.980833697631263135e+01,-1.680094187935583250e+02,-1.680085758733907255e+02,-1.680079015372567142e+02
1.445439770745927888e+00,3.981512416194060933e+01,3.379452425158670792e+01,1.981512416580256186e+01,-1.682221634684644869e+02,-1.682213048772409252e+02,-1.682206180042621781e+02
1.472312502432719494e+00,3.982167590586144001e+01,3.380107599561733878e+01,1.982167590986832906e+01,-1.684313472025029625e+02,-1.684304726488768154e+02,-1.684297730059759317e+02
1.499684835502373748e+00,3.982800003471616179e+01,3.380740012458597477e+01,1.982800003887341944e+01,-1.686370186753682390e+02,-1.686361278625762736e+02,-1.686354152123427355e+02
1.527566058238073232e+00,3.983410414151855861e+01,3.381350423150656326e+01,1.983410414583183368e+01,-1.688392264798964675e+02,-1.688383191056582575e+02,-1.688375932062676839e+02
1.555965631605074950e+00,3.983999558754134540e+01,3.381939567765198262e+01,1.983999559201649276e+01,-1.690380190869266812e+02,-1.690370948433419187e+02,-1.690363554484740689e+02
1.584893192461114264e+00,3.984568150790554597e+01,3.382508159814341298e+01,1.984568151254863722e+01,-1.692334448122697381e+02,-1.692325033857138123e+02,-1.692317502444690831e+02
1.614358556826487101e+00,3.985116881714111514e+01,3.383056890751098678e+01,1.985116882195845633e+01,-1.694255517857063751e+02,-1.694245928567240753e+02,-1.694238257135381787e+02
1.644371723214932413e+00,3.985646421470996614e+01,3.383586430521680199e+01,1.985646421970809783e+01,-1.696143879219374639e+02,-1.696134111651343517e+02,-1.696126297596918562e+02
1.674942876026438210e+00,3.986157419048324613e+01,3.384097428113217632e+01,1.986157419566893978e+01,-1.698000008934095035e+02,-1.697990059773416931e+02,-1.697982100444873197e+02
1.706082389003124256e+00,3.986650503016553415e+01,3.384590512096189485e+01,1.986650503554584191e+01,-1.699824381049405133e+02,-1.699814246920020366e+02,-1.699806139616511018e+02
1.737800828749376247e+00,3.987126282065948146e+01,3.385066291160881491e+01,1.987126282624170770e+01,-1.701617466700722332e+02,-1.701607144163805856e+02,-1.701598886134270856e+02
1.770108958317422099e+00,3.987585345536482606e+01,3.385525354647286633e+01,1.987585346115654161e+01,-1.703379733890755290e+02,-1.703369219443549696e+02,-1.703360807885783288e+02
1.803017740859569784e+00,3.988028263940652351e+01,3.385968273067922496e+01,1.988028264541559054e+01,-1.705111647285386880e+02,-1.705100937360013234e+02,-1.705092369419712668e+02
1.836538343348347313e+00,3.988455589478737551e+01,3.386395598623091985e+01,1.988455590102195458e+01,-1.706813668024683182e+02,-1.706802758986931110e+02,-1.706794031756727463e+02
1.870682140365801827e+00,3.988867856546093549e+01,3.386807865708172471e+01,1.988867857192948918e+01,-1.708486253548356899e+02,-1.708475141696451374e+02,-1.708466252214923884e+02
1.905460717963248340e+00,3.989265582232111740e+01,3.387205591412581640e+01,1.989265582903242446e+01,-1.710129857435022416e+02,-1.710118538998366375e+02,-1.710109484249038303e+02
1.940885877592779529e+00,3.989649266810538109e+01,3.387589276010088923e+01,1.989649267506855423e+01,-1.711744929254602141e+02,-1.711733400392498368e+02,-1.711724177302812109e+02
1.976969640111861937e+00,3.990019394220881566e+01,3.387959403440228812e+01,1.990019394943330866e+01,-1.713331914433260010e+02,-1.713320171233607425e+02,-1.713310776673881435e+02
2.013724249862389293e+00,3.990376432540689677e+01,3.388316441780575872e+01,1.990376433290250802e+01,-1.714891254130260450e+02,-1.714879292608226820e+02,-1.714869723390595482e+02
2.051162178825564730e+00,3.990720834448499943e+01,3.388660843709698156e+01,1.990720835226191454e+01,-1.716423385126166181e+02,-1.716411201222835246e+02,-1.716401454100165438e+02
2.089296130854038758e+00,3.991053037677330906e+01,3.388993046960638367e+01,1.991053038484207605e+01,-1.717928739721812406e+02,-1.717916329302806844e+02,-1.717906400967597449e+02
2.128139045982711419e+00,3.991373465458580228e+01,3.389313474764827561e+01,1.991373466295737771e+01,-1.719407745647505124e+02,-1.719395104501585081e+02,-1.719384991584842908e+02
2.167704104819693889e+00,3.991682526956257959e+01,3.389622536286307053e+01,1.991682527824832860e+01,-1.720860825981927746e+02,-1.720847949819558664e+02,-1.720837648889657032e+02
2.208004733018899213e+00,3.991980617691498878e+01,3.389920627046241464e+01,1.991980618592669572e+01,-1.722288399080236161e+02,-1.722275283532136427e+02,-1.722264791093649876e+02
2.249054605835780318e+00,3.992268119957308414e+01,3.390208129337671750e+01,1.992268120892298811e+01,-1.723690878510863342e+02,-1.723677519126519826e+02,-1.723666831619037794e+02
2.290867652767772267e+00,3.992545403223562062e+01,3.390485412630508222e+01,1.992545404193641190e+01,-1.725068673000557169e+02,-1.725055065246716310e+02,-1.725044179043634927e+02
2.333458062281001943e+00,3.992812824532251170e+01,3.390752833966777757e+01,1.992812825538735666e+01,-1.726422186387204363e+02,-1.726408325646331718e+02,-1.726397237053624565e+02
2.376840286624875898e+00,3.993070728883019171e+01,3.391010738346160736e+01,1.993070729927275764e+01,-1.727751817580001727e+02,-1.727737699148717638e+02,-1.727726404403680363e+02
2.421029046736177470e+00,3.993319449609049343e+01,3.391259459101879514e+01,1.993319450692495565e+01,-1.729057960526565125e+02,-1.729043579614046564e+02,-1.729032074884021881e+02
2.466039337234338547e+00,3.993559308743360248e+01,3.391499318266993157e+01,1.993559309867465501e+01,-1.730341004186572889e+02,-1.730326355912930296e+02,-1.730314637294005138e+02
2.511886431509579687e+00,3.993790617375603347e+01,3.391730626931195758e+01,1.993790618541895299e+01,-1.731601332511563385e+02,-1.731586411906182263e+02,-1.731574475421865316e+02
2.558585886905645257e+00,3.994013675999465818e+01,3.391953685588217127e+01,1.994013677209526847e+01,-1.732839324430521799e+02,-1.732824126430377021e+02,-1.732811968030248124e+02
2.606153549998895258e+00,3.994228774850768104e+01,3.392168784473921050e+01,1.994228776106240275e+01,-1.734055353840905696e+02,-1.734039873288843410e+02,-1.734027488847179654e+02
2.654605561975539096e+00,3.994436194236399018e+01,3.392376203895245368e+01,1.994436195538986922e+01,-1.735249789604779096e+02,-1.735234021247767373e+02,-1.735221406562142761e+02
2.703958364108843160e+00,3.994636204854208472e+01,3.392576214550088309e+01,1.994636206205680651e+01,-1.736422995549731070e+02,-1.736406934037076155e+02,-1.736394084826936250e+02
2.754228703338166273e+00,3.994829068103994985e+01,3.392769077838298131e+01,1.994829069506185704e+01,-1.737575330474280122e+02,-1.737558970355811709e+02,-1.737545882261020154e+02
2.805433637951713077e+00,3.995015036389730056e+01,3.392955046163898913e+01,1.995015037844543571e+01,-1.738707148157471352e+02,-1.738690483881693183e+02,-1.738677152461052913e+02
2.857590543374946446e+00,3.995194353413184984e+01,3.393134363228715245e+01,1.995194354922595181e+01,-1.739818797372391259e+02,-1.739801823284596765e+02,-1.739788244014341956e+02
2.910717118066604936e+00,3.995367254459092976e+01,3.393307264317536465e+01,1.995367256025148350e+01,-1.740910621903337017e+02,-1.740893332243690850e+02,-1.740879500515952998e+02
2.964831389524342331e+00,3.995533966672028470e+01,3.393473976574995987e+01,1.995533968296856031e+01,-1.741982960566390375e+02,-1.741965349467973851e+02,-1.741951260589218577e+02
3.019951720402016537e+00,3.995694709325159977e+01,3.393634719274322720e+01,1.995694711010964539e+01,-1.743036147233159454e+02,-1.743018208719979896e+02,-1.743003857909412773e+02
3.076096814740707952e+00,3.995849694081037029e+01,3.393789704078128011e+01,1.995849695830106896e+01,-1.744070510857457350e+02,-1.744052238842419342e+02,-1.744037621230364437e+02
3.133285724315585608e+00,3.995999125244592420e+01,3.393939135291410025e+01,1.995999127059301514e+01,-1.745086375504709508e+02,-1.745067763787551200e+02,-1.745052874413798349e+02
3.191537855100761600e+00,3.996143200008518903e+01,3.394083210106930437e+01,1.996143201891331742e+01,-1.746084060383882388e+02,-1.746065102649070013e+02,-1.746049936461191407e+02
3.250872973854344039e+00,3.996282108691207924e+01,3.394222118843148905e+01,1.996282110644679619e+01,-1.747063879881737876e+02,-1.747044569696322753e+02,-1.747029121547960528e+02
3.311311214825911176e+00,3.996416034967401743e+01,3.394356045174880165e+01,1.996416036994183685e+01,-1.748026143599235809e+02,-1.748006474410672126e+02,-1.747990739059789007e+02
3.372873086588688896e+00,3.996545156091749362e+01,3.394485166356850669e+01,1.996545158194594194e+01,-1.748971156389904991e+02,-1.748951121523825805e+02,-1.748935093630929032e+02
3.435579478998746605e+00,3.996669643115438220e+01,3.394609653440325303e+01,1.996669645297199125e+01,-1.749899218400021539e+02,-1.749878811057974985e+02,-1.749862485184301875e+02
3.499451670283573623e+00,3.996789661096055113e+01,3.394729671482971156e+01,1.996789663359694345e+01,-1.750810625110439389e+02,-1.750789838367579989e+02,-1.750773208973254498e+02
3.564511334262442599e+00,3.996905369300873190e+01,3.394845379752145220e+01,1.996905371649462779e+01,-1.751705667379921749e+02,-1.751684494182662490e+02,-1.751667555624813701e+02
3.630780547701013994e+00,3.997016921403712786e+01,3.394956931921757359e+01,1.997016923840441294e+01,-1.752584631489839353e+02,-1.752563064653455740e+02,-1.752545811184305364e+02
3.698281797802662751e+00,3.997124465675560145e+01,3.395064476262881925e+01,1.997124468203735148e+01,-1.753447799190098806e+02,-1.753425831396293404e+02,-1.753408257161203210e+02
3.767037989839089107e+00,3.997228145169097502e+01,3.395168155828296364e+01,1.997228147792150565e+01,-1.754295447746183356e+02,-1.754273071540601450e+02,-1.754255170576087437e+02
3.837072454922788811e+00,3.997328097897319310e+01,3.395268108631093895e+01,1.997328100618812030e+01,-1.755127849987182174e+02,-1.755105057776882234e+02,-1.755086824008590440e+02
3.908408957924021099e+00,3.997424457006391663e+01,3.395364467817539378e+01,1.997424459830017085e+01,-1.755945274354700985e+02,-1.755922058405578241e+02,-1.755903485646225306e+02
3.981071705534973137e+00,3.997517350942909786e+01,3.395457361834334620e+01,1.997517353872501644e+01,-1.756747984952553736e+02,-1.756724337386714865e+02,-1.756705419333985958e+02
4.055085354483838778e+00,3.997606903615726281e+01,3.395546914590440934e+01,1.997606906655260417e+01,-1.757536241597127002e+02,-1.757512154390218768e+02,-1.757492884624630847e+02
4.130475019901614253e+00,3.997693234552484398e+01,3.395633245613615259e+01,1.997693237706087999e+01,-1.758310299868337836e+02,-1.758285764846823156e+02,-1.758266136829545871e+02
4.207266283844441901e+00,3.997776459051026166e+01,3.395716470201816151e+01,1.997776462322979540e+01,-1.759070411161089567e+02,-1.759045419999472699e+02,-1.759025427070109799e+02
4.285485203974396029e+00,3.997856688325816066e+01,3.395796699569630306e+01,1.997856691720561173e+01,-1.759816822737144832e+02,-1.759791366955148817e+02,-1.759771002329478620e+02
4.365158322401661017e+00,3.997934029649521648e+01,3.395874040989849618e+01,1.997934033171665646e+01,-1.760549777777346776e+02,-1.760523848737034029e+02,-1.760503105504705559e+02
4.446312674691088596e+00,3.998008586489904559e+01,3.395948597930370738e+01,1.998008590144229757e+01,-1.761269515434105131e+02,-1.761243104336946601e+02,-1.761221975459137070e+02
4.528975799036208727e+00,3.998080458642162682e+01,3.396020470186522289e+01,1.998080462433627602e+01,-1.761976270884091207e+02,-1.761949368767981809e+02,-1.761927847075006355e+02
4.613175745603795619e+00,3.998149742356839198e+01,3.396089754008993111e+01,1.998149746290592788e+01,-1.762670275381073282e+02,-1.762642873117289071e+02,-1.762620951306168706e+02
4.698941086052156102e+00,3.998216530463471940e+01,3.396156542227464570e+01,1.998216534544852507e+01,-1.763351756308832137e+02,-1.763323844598933761e+02,-1.763301515230917289e+02
4.786300923226384896e+00,3.998280912490067607e+01,3.396220924370096128e+01,1.998280916724615963e+01,-1.764020937234107578e+02,-1.763992506606785184e+02,-1.763969762104823644e+02
4.875284901033865026e+00,3.998342974778569214e+01,3.396282986778989965e+01,1.998342979172034362e+01,-1.764678037959518520e+02,-1.764649078767377262e+02,-1.764625911413554036e+02
4.965923214503362715e+00,3.998402800596421258e+01,3.396342812721749738e+01,1.998402805154765360e+01,-1.765323274576413723e+02,-1.765293776992699861e+02,-1.765270178925613038e+02
5.058246620031142449e+00,3.998460470244343412e+01,3.396400482499269202e+01,1.998460474973755652e+01,-1.765956859517604869e+02,-1.765926813532873041e+02,-1.765902776744964342e+02
5.152286445817567007e+00,3.998516061160470514e+01,3.396456073549855859e+01,1.998516066067369934e+01,-1.766579001609945578e+02,-1.766548397028659849e+02,-1.766523913363500355e+02
5.248074602497728947e+00,3.998569648020926337e+01,3.396509660549818221e+01,1.998569653111973565e+01,-1.767189906126709218e+02,-1.767158732563783872e+02,-1.767133793713305749e+02
5.345643593969718665e+00,3.998621302836981073e+01,3.396561315510614065e+01,1.998621308119087203e+01,-1.767789774839740176e+02,-1.767758021717017414e+02,-1.767732619218693628e+02
5.445026528424214085e+00,3.998671095048881341e+01,3.396611107872687541e+01,1.998671100529216460e+01,-1.768378806071339113e+02,-1.768346462613999108e+02,-1.768320587847972263e+02
5.546257129579109879e+00,3.998719091616469257e+01,3.396659104596085399e+01,1.998719097302472392e+01,-1.768957194745852917e+02,-1.768924249978755654e+02,-1.768897894164913964e+02
5.649369748123028501e+00,3.998765357106688612e+01,3.396705370247961042e+01,1.998765363006078388e+01,-1.769525132440941206e+02,-1.769491575184904377e+02,-1.769464729379901371e+02
5.754399373371572146e+00,3.998809953778081194e+01,3.396749967087077948e+01,1.998809959898866850e+01,-1.770082807438494967e+02,-1.770048626306499102e+02,-1.770021281400719886e+02
5.861381645140290253e+00,3.998852941662377702e+01,3.396792955145392057e+01,1.998852948012866193e+01,-1.770630404775181148e+02,-1.770595588168507390e+02,-1.770567734882974378e+02
5.970352865838371770e+00,3.998894378643257852e+01,3.396834392306819694e+01,1.998894385232069837e+01,-1.771168106292592768e+02,-1.771132642396884762e+02,-1.771104271280113949e+02
6.081350012787182457e+00,3.998934320532401898e+01,3.396874334383288385e+01,1.998934327368482400e+01,-1.771696090686983780e+02,-1.771659967468241348e+02,-1.771631068893030374e+02
6.194410750767818108e+00,3.998972821142900358e+01,3.396912835188140889e+01,1.998972828235527643e+01,-1.772214533558573066e+02,-1.772177738759065733e+02,-1.772148302919230503e+02
6.309573444801936937e+00,3.999009932360115727e+01,3.396949946607003312e+01,1.999009939718917650e+01,-1.772723607460394817e+02,-1.772686128594505419e+02,-1.772656145501550782e+02
6.426877173170199242e+00,3.999045704210080743e+01,3.396985718666183374e+01,1.999045711845047180e+01,-1.773223481946688480e+02,-1.773185306296673787e+02,-1.773154765776405100e+02
6.546361740672747231e+00,3.999080184925524861e+01,3.397020199598694745e+01,1.999080192847019433e+01,-1.773714323620808102e+02,-1.773675438232484964e+02,-1.773644329921554856e+02
6.668067692136218305e+00,3.999113421009587199e+01,3.397053435907969998e+01,1.999113429228362904e+01,-1.774196296182641390e+02,-1.774156687860989905e+02,-1.774125001203382226e+02
6.792036326171842830e+00,3.999145457297313300e+01,3.397085472429360919e+01,1.999145465824526369e+01,-1.774669560475529977e+02,-1.774629215780217066e+02,-1.774596940023664047e+02
6.918309709189361278e+00,3.999176337015000371e+01,3.397116352389482330e+01,1.999176345862226967e+01,-1.775134274532674681e+02,-1.775093179773493546e+02,-1.775060303965827870e+02
7.046930689671467185e+00,3.999206101837468452e+01,3.397146117463482540e+01,1.999206111016717102e+01,-1.775590593623028042e+02,-1.775548734855251212e+02,-1.775515247840689881e+02
7.177942912713614732e+00,3.999234791943317902e+01,3.397174807830303678e+01,1.999234801467049039e+01,-1.776038670296653095e+02,-1.775996033316300498e+02,-1.775961923731659908e+02
7.311390834834172736e+00,3.999262446068257049e+01,3.397202462226007924e+01,1.999262455949398642e+01,-1.776478654429554922e+02,-1.776435224768576404e+02,-1.776400481039414103e+02
7.447319739059887311e+00,3.999289101556551174e+01,3.397229117995229331e+01,1.999289111808516139e+01,-1.776910693267971908e+02,-1.776866456189335679e+02,-1.776831066526025040e+02
7.585775750291835706e+00,3.999314794410665996e+01,3.397254811140813047e+01,1.999314805047370669e+01,-1.777334931472123287e+02,-1.777289871964815120e+02,-1.777253824358544136e+02
7.726805850957020994e+00,3.999339559339159678e+01,3.397279576371715137e+01,1.999339570375043351e+01,-1.777751511159412416e+02,-1.777705613933343045e+02,-1.777668896152039224e+02
7.870457896950984633e+00,3.999363429802895098e+01,3.397303447149207045e+01,1.999363441252938145e+01,-1.778160571947078381e+02,-1.778113821427895118e+02,-1.778076421012074206e+02
8.016780633876789963e+00,3.999386438059613624e+01,3.397326455731457884e+01,1.999386449939358101e+01,-1.778562250994300200e+02,-1.778514631318100498e+02,-1.778476535576639890e+02
8.165823713585922405e+00,3.999408615206939288e+01,3.397348633216532221e+01,1.999408627532512384e+01,-1.778956683043742260e+02,-1.778908178051692914e+02,-1.778869374057523203e+02
8.317637711026709013e+00,3.999429991223869507e+01,3.397370009583886485e+01,1.999430004012002016e+01,-1.779344000462551776e+02,-1.779294593695404103e+02,-1.779255068281125034e+02
8.472274141405963022e+00,3.999450595010785747e+01,3.397390613734377496e+01,1.999450608278836228e+01,-1.779724333282799478e+02,-1.779674007975303596e+02,-1.779633747728714184e+02
8.629785477669701166e+00,3.999470454428060862e+01,3.397410473528871222e+01,1.999470468194040507e+01,-1.780097809241366065e+02,-1.780046548316584563e+02,-1.780005539576132492e+02
8.790225168308841930e+00,3.999489596333290109e+01,3.397429615825475935e+01,1.999489610615885127e+01,-1.780464553819279843e+02,-1.780412339882789752e+02,-1.780370568732935794e+02
8.953647655495936775e+00,3.999508046617209089e+01,3.397448066515457299e+01,1.999508061435807349e+01,-1.780824690280496725e+02,-1.780771505614490593e+02,-1.780728957880985490e+02
9.120108393559096527e+00,3.999525830238331281e+01,3.397465850557880884e+01,1.999525845613047181e+01,-1.781178339710137948e+02,-1.781124166267408668e+02,-1.781080827512484461e+02
9.289663867799362151e+00,3.999542971256359891e+01,3.397482992013023306e+01,1.999542987208065625e+01,-1.781525621052173562e+02,-1.781470440449991770e+02,-1.781426295967463602e+02
9.462371613657929004e+00,3.999559492864415233e+01,3.397499514074595339e+01,1.999559509414763170e+01,-1.781866651146567051e+02,-1.781810444660442556e+02,-1.781765479470715547e+02
9.638290236239704711e+00,3.999575417420108181e+01,3.397515439100824608e+01,1.999575434591564260e+01,-1.782201544765872256e+02,-1.782144293323201225e+02,-1.782098492168189807e+02
9.817479430199844259e+00,3.999590766475515125e+01,3.397530788644426281e+01,1.999590784291388346e+01,-1.782530414651297406e+02,-1.782472098824890168e+02,-1.782425446162839648e+02
1.000000000000000000e+01,3.999605560806086402e+01,3.397545583481513631e+01,1.999605579290560797e+01,-1.782853371548229404e+02,-1.782793971549717753e+02,-1.782746451549930953e+02
1.018591388054116997e+01,3.999619820438519469e+01,3.397559843639471922e+01,1.999619839616687855e+01,-1.783170524241230908e+02,-1.783110019914352904e+02,-1.783061616451818452e+02
1.037528415818012739e+01,3.999633564677646547e+01,3.397573588423846758e+01,1.999633584575540723e+01,-1.783481979588505340e+02,-1.783420350402267616e+02,-1.783371047052186498e+02
1.056817509213658468e+01,3.999646812132353801e+01,3.397586836444263270e+01,1.999646832776985050e+01,-1.783787842555844350e+02,-1.783725067597553675e+02,-1.783674847629767157e+02
1.076465213629835027e+01,3.999659580740587472e+01,3.397599605639435794e+01,1.999659602159977823e+01,-1.784088216250054018e+02,-1.784024274218220967e+02,-1.783973120591534780e+02
1.096478196143185180e+01,3.999671887793456193e+01,3.397611913301271613e+01,1.999671910016682830e+01,-1.784383201951867193e+02,-1.784318071148978220e+02,-1.784265966505377889e+02
1.116863247780561252e+01,3.999683749958481371e+01,3.397623776098117077e+01,1.999683773015710742e+01,-1.784672899148349074e+02,-1.784606557473504722e+02,-1.784553484132266306e+02
1.137627285823431045e+01,3.999695183302014811e+01,3.397635210097180902e+01,1.999695207224544546e+01,-1.784957405564798307e+02,-1.784889830506212149e+02,-1.784835770457902697e+02
1.158777356155126270e+01,3.999706203310844899e+01,3.397646230786143207e+01,1.999706228131149999e+01,-1.785236817196149275e+02,-1.785167985823509582e+02,-1.785112920723875902e+02
1.180320635651730043e+01,3.999716824913051738e+01,3.397656853094007090e+01,1.999716850664823298e+01,-1.785511228337881278e+02,-1.785441117294571427e+02,-1.785385028458314878e+02
1.202264434617413080e+01,3.999727062498092778e+01,3.397667091411187101e+01,1.999727089216287723e+01,-1.785780731616442552e+02,-1.785709317111613643e+02,-1.785652185506049534e+02
1.224616199265048877e+01,3.999736929936185703e+01,3.397676959608894975e+01,1.999736957657072267e+01,-1.786045418019188560e+02,-1.785972675819686231e+02,-1.785914482058287263e+02
1.247383514242943292e+01,3.999746440596989316e+01,3.397686471057819801e+01,1.999746469358196777e+01,-1.786305376923846779e+02,-1.786231282345990223e+02,-1.786172006681805442e+02
1.270574105208542015e+01,3.999755607367619348e+01,3.397695638646148808e+01,1.999755637208189185e+01,-1.786560696127510255e+02,-1.786485224028714924e+02,-1.786424846347670439e+02
1.294195841449986339e+01,3.999764442670014830e+01,3.397704474796930896e+01,1.999764473630454020e+01,-1.786811461875165037e+02,-1.786734586645410445e+02,-1.786673086459484807e+02
1.318256738556407370e+01,3.999772958477686302e+01,3.397712991484826262e+01,1.999772990600022027e+01,-1.787057758887761167e+02,-1.786979454440901804e+02,-1.786916810881171784e+02
1.342764961137864255e+01,3.999781166331862181e+01,3.397721200252259166e+01,1.999781199659697606e+01,-1.787299670389828066e+02,-1.787219910154741171e+02,-1.787156101964301627e+02
1.367728825595849429e+01,3.999789077357049649e+01,3.397729112224978110e+01,1.999789111935625385e+01,-1.787537278136644261e+02,-1.787456035048213323e+02,-1.787391040574963199e+02
1.393156802945303774e+01,3.999796702276049132e+01,3.397736738127066758e+01,1.999796738152304343e+01,-1.787770662440965168e+02,-1.787687908930896583e+02,-1.787621706120193892e+02
1.419057521689092560e+01,3.999804051424420237e+01,3.397744088295422671e+01,1.999804088647054456e+01,-1.787999902199317717e+02,-1.787915610186784647e+02,-1.787848176573959336e+02
1.445439770745928065e+01,3.999811134764431131e+01,3.397751172693696731e+01,1.999811173383971763e+01,-1.788225074917862685e+02,-1.788139215799977819e+02,-1.788070528502711909e+02
1.472312502432719405e+01,3.999817961898509111e+01,3.397758000925752242e+01,1.999818001967380354e+01,-1.788446256737836677e+02,-1.788358801379945078e+02,-1.788288837090505297e+02
1.499684835502373836e+01,3.999824542082203749e+01,3.397764582248628784e+01,1.999824583654795873e+01,-1.788663522460574882e+02,-1.788574441186369199e+02,-1.788503176163700061e+02
1.527566058238073232e+01,3.999830884236686046e+01,3.397770925585045632e+01,1.999830927369431777e+01,-1.788876945572125408e+02,-1.788786208153574364e+02,-1.788713618215241183e+02
1.555965631605075039e+01,3.999836996960802082e+01,3.397777039535452559e+01,1.999837041712251207e+01,-1.789086598267454633e+02,-1.788994173914547616e+02,-1.788920234428531160e+02
1.584893192461114175e+01,3.999842888542686126e+01,3.397782932389647215e+01,1.999842934973585784e+01,-1.789292551474259767e+02,-1.789198408824556168e+02,-1.789123094700893546e+02
1.614358556826486790e+01,3.999848566970960206e+01,3.397788612137981090e+01,1.999848615144338737e+01,-1.789494874876380095e+02,-1.789398981984370209e+02,-1.789322267666640300e+02
1.644371723214932501e+01,3.999854039945533657e+01,3.397794086482153375e+01,1.999854089926782308e+01,-1.789693636936828227e+02,-1.789595961263091226e+02,-1.789517820719745202e+02
1.674942876026438299e+01,3.999859314888006878e+01,3.397799362845623250e+01,1.999859366744971823e+01,-1.789888904920437938e+02,-1.789789413320600033e+02,-1.789709820036125905e+02
1.706082389003124433e+01,3.999864398951703492e+01,3.397804448383645592e+01,1.999864452754778199e+01,-1.790080744916134279e+02,-1.789979403629623675e+02,-1.789898330595548828e+02
1.737800828749376336e+01,3.999869299031347225e+01,3.397809349992943595e+01,1.999869354853565895e+01,-1.790269221858837909e+02,-1.790165996497426590e+02,-1.790083416203154343e+02
1.770108958317421965e+01,3.999874021772380672e+01,3.397814074321037481e+01,1.999874079689518425e+01,-1.790454399551004201e+02,-1.790349255087140534e+02,-1.790265139510614461e+02
1.803017740859569784e+01,3.999878573579954377e+01,3.397818627775230738e+01,1.999878633670630990e+01,-1.790636340683804804e+02,-1.790529241438727865e+02,-1.790443562036921605e+02
1.836538343348347269e+01,3.999882960627591899e+01,3.397823016531283002e+01,1.999883022973375546e+01,-1.790815106857957630e+02,-1.790706016489588706e+02,-1.790618744188822404e+02
1.870682140365801516e+01,3.999887188865537979e+01,3.397827246541758228e+01,1.999887253551060340e+01,-1.790990758604208963e+02,-1.790879640094821639e+02,-1.790790745280895351e+02
1.905460717963248385e+01,3.999891264028813254e+01,3.397831323544082949e+01,1.999891331141880713e+01,-1.791163355403478761e+02,-1.791050171047135962e+02,-1.790959623555281155e+02
1.940885877592779352e+01,3.999895191644971248e+01,3.397835253068306827e+01,1.999895261276685687e+01,-1.791332955706666894e+02,-1.791217667096427704e+02,-1.791125436201070045e+02
1.976969640111861892e+01,3.999898977041580395e+01,3.397839040444588221e+01,1.999899049286462471e+01,-1.791499616954131398e+02,-1.791382184969017430e+02,-1.791288239373353122e+02
2.013724249862389470e+01,3.999902625353433905e+01,3.397842690810407618e+01,1.999902700309551662e+01,-1.791663395594845554e+02,-1.791543780386566311e+02,-1.791448088211939194e+02
2.051162178825566684e+01,3.999906141529499592e+01,3.397846209117522420e+01,1.999906219298601329e+01,-1.791824347105231823e+02,-1.791702508084663350e+02,-1.791605036859749305e+02
2.089296130854040356e+01,3.999909530339620289e+01,3.397849600138665949e+01,1.999909611027273115e+01,-1.791982526007686829e+02,-1.791858421831098269e+02,-1.791759138480887543e+02
2.128139045982713284e+01,3.999912796380971258e+01,3.397852868474016219e+01,1.999912880096703205e+01,-1.792137985888797118e+02,-1.792011574443821758e+02,-1.791910445278393524e+02
2.167704104819694422e+01,3.999915944084284547e+01,3.397856018557419588e+01,1.999916030941735201e+01,-1.792290779417253077e+02,-1.792162017808598762e+02,-1.792059008511690195e+02
2.208004733018899302e+01,3.999918977719849522e+01,3.397859054662394840e+01,1.999919067836922082e+01,-1.792440958361465277e+02,-1.792309802896358235e+02,-1.792204878513720132e+02
2.249054605835780407e+01,3.999921901403293134e+01,3.397861980907921975e+01,1.999921994902316413e+01,-1.792588573606890066e+02,-1.792454979780248721e+02,-1.792348104707783136e+02
2.290867652767772356e+01,3.999924719101158388e+01,3.397864801264022105e+01,1.999924816109051307e+01,-1.792733675173066956e+02,-1.792597597652401191e+02,-1.792488735624081642e+02
2.333458062281001943e+01,3.999927434636271073e+01,3.397867519557129157e+01,1.999927535284717095e+01,-1.792876312230377209e+02,-1.792737704840403694e+02,-1.792626818915968272e+02
2.376840286624875986e+01,3.999930051692924593e+01,3.397870139475279672e+01,1.999930156118546165e+01,-1.793016533116522169e+02,-1.792875348823498030e+02,-1.792762401375914294e+02
2.421029046736177293e+01,3.999932573821865134e+01,3.397872664573104373e+01,1.999932682166414111e+01,-1.793154385352732731e+02,-1.793010576248493919e+02,-1.792895528951191295e+02
2.466039337234338547e+01,3.999935004445104170e+01,3.397875098276645645e+01,1.999935116855652595e+01,-1.793289915659711937e+02,-1.793143432945418851e+02,-1.793026246759282003e+02
2.511886431509579509e+01,3.999937346860556886e+01,3.397877443887998794e+01,1.999937463489694522e+01,-1.793423169973315225e+02,-1.793273963942891669e+02,-1.793154599103014277e+02
2.558585886905645168e+01,3.999939604246509361e+01,3.397879704589788474e+01,1.999939725252552591e+01,-1.793554193459972907e+02,-1.793402213483240359e+02,-1.793280629485433053e+02
2.606153549998894903e+01,3.999941779665921615e+01,3.397881883449476703e+01,1.999941905213129445e+01,-1.793683030531861675e+02,-1.793528225037358936e+02,-1.793404380624402279e+02
2.654605561975538564e+01,3.999943876070584281e+01,3.397883983423523802e+01,1.999944006329379320e+01,-1.793809724861828272e+02,-1.793652041319312502e+02,-1.793525894466958448e+02
2.703958364108843426e+01,3.999945896305115411e+01,3.397886007361392302e+01,1.999946031452316575e+01,-1.793934319398069306e+02,-1.793773704300689644e+02,-1.793645212203402934e+02
2.754228703338166184e+01,3.999947843110818013e+01,3.397887958009411591e+01,1.999947983329877843e+01,-1.794056856378573741e+02,-1.793893255224717507e+02,-1.793762374281147629e+02
2.805433637951713166e+01,3.999949719129390502e+01,3.397889838014498309e+01,1.999949864610649186e+01,-1.794177377345331195e+02,-1.794010734620127039e+02,-1.793877420418315296e+02
2.857590543374946179e+01,3.999951526906514943e+01,3.397891649927743885e+01,1.999951677847453624e+01,-1.794295923158309733e+02,-1.794126182314792572e+02,-1.793990389617099765e+02
2.910717118066605025e+01,3.999953268895301761e+01,3.397893396207873451e+01,1.999953425500813253e+01,-1.794412534009209992e+02,-1.794239637449131237e+02,-1.794101320176888805e+02
2.964831389524342242e+01,3.999954947459616506e+01,3.397895079224578296e+01,1.999955109942284182e+01,-1.794527249434998453e+02,-1.794351138489281823e+02,-1.794210249707155924e+02
3.019951720402016093e+01,3.999956564877287235e+01,3.397896701261730357e+01,1.999956733457670666e+01,-1.794640108331221597e+02,-1.794460723240057121e+02,-1.794317215140120254e+02
3.076096814740708041e+01,3.999958123343188277e+01,3.397898264520474498e+01,1.999958298250125210e+01,-1.794751148965112293e+02,-1.794568428857675428e+02,-1.794422252743186164e+02
3.133285724315585696e+01,3.999959624972219530e+01,3.397899771122216350e+01,1.999959806443135335e+01,-1.794860408988485005e+02,-1.794674291862282587e+02,-1.794525398131159477e+02
3.191537855100761334e+01,3.999961071802172796e+01,3.397901223111497870e+01,1.999961260083402692e+01,-1.794967925450425810e+02,-1.794778348150258580e+02,-1.794626686278249394e+02
3.250872973854343684e+01,3.999962465796492950e+01,3.397902622458768462e+01,1.999962661143617382e+01,-1.795073734809786288e+02,-1.794880633006316657e+02,-1.794726151529854121e+02
3.311311214825911264e+01,3.999963808846943181e+01,3.397903971063056616e+01,1.999964011525134566e+01,-1.795177872947478761e+02,-1.794981181115403501e+02,-1.794823827614141862e+02
3.372873086588688807e+01,3.999965102776170056e+01,3.397905270754546336e+01,1.999965313060549832e+01,-1.795280375178579675e+02,-1.795080026574394481e+02,-1.794919747653422633e+02
3.435579478998746339e+01,3.999966349340170524e+01,3.397906523297060488e+01,1.999966567516188576e+01,-1.795381276264245400e+02,-1.795177202903598754e+02,-1.795013944175319693e+02
3.499451670283573179e+01,3.999967550230680047e+01,3.397907730390446090e+01,1.999967776594496272e+01,-1.795480610423443579e+02,-1.795272743058067135e+02,-1.795106449123744028e+02
3.564511334262442688e+01,3.999968707077463392e+01,3.397908893672889974e+01,1.999968941936352351e+01,-1.795578411344504275e+02,-1.795366679438714357e+02,-1.795197293869673558e+02
3.630780547701014171e+01,3.999969821450522289e+01,3.397910014723129990e+01,1.999970065123291363e+01,-1.795674712196493488e+02,-1.795459043903258873e+02,-1.795286509221738243e+02
3.698281797802662396e+01,3.999970894862230608e+01,3.397911095062602982e+01,1.999971147679649874e+01,-1.795769545640413867e+02,-1.795549867776974224e+02,-1.795374125436622990e+02
3.767037989839089107e+01,3.999971928769381435e+01,3.397912136157506069e+01,1.999972191074634864e+01,-1.795862943840236596e+02,-1.795639181863271290e+02,-1.795460172229281000e+02
3.837072454922788012e+01,3.999972924575163091e+01,3.397913139420784745e+01,1.999973196724314306e+01,-1.795954938473766731e+02,-1.795727016454100067e+02,-1.795544678782970607e+02
3.908408957924021365e+01,3.999973883631064808e+01,3.397914106214051344e+01,1.999974165993539188e+01,-1.796045560743346243e+02,-1.795813401340182622e+02,-1.795627673759108234e+02
3.981071705534973404e+01,3.999974807238707086e+01,3.397915037849428899e+01,1.999975100197793765e+01,-1.796134841386398193e+02,-1.795898365821080063e+02,-1.795709185306954794e+02
4.055085354483838955e+01,3.999975696651609525e+01,3.397915935591334602e+01,1.999976000604982573e+01,-1.796222810685816000e+02,-1.795981938715090109e+02,-1.795789241073124174e+02
4.130475019901614786e+01,3.999976553076889729e+01,3.397916800658191505e+01,1.999976868437146749e+01,-1.796309498480199238e+02,-1.796064148368991482e+02,-1.795867868210924883e+02
4.207266283844441546e+01,3.999977377676899692e+01,3.397917634224084793e+01,1.999977704872124207e+01,-1.796394934173943341e+02,-1.796145022667622015e+02,-1.795945093389537703e+02
4.285485203974396740e+01,3.999978171570808883e+01,3.397918437420350557e+01,1.999978511045146234e+01,-1.796479146747181233e+02,-1.796224589043307560e+02,-1.796020942803032199e+02
4.365158322401661195e+01,3.999978935836112015e+01,3.397919211337113410e+01,1.999979288050378656e+01,-1.796562164765584555e+02,-1.796302874485137977e+02,-1.796095442179218935e+02
4.446312674691088773e+01,3.999979671510101298e+01,3.397919957024765125e+01,1.999980036942405093e+01,-1.796644016390025342e+02,-1.796379905548092495e+02,-1.796168616788350505e+02
4.528975799036209082e+01,3.999980379591264779e+01,3.397920675495388565e+01,1.999980758737658348e+01,-1.796724729386102126e+02,-1.796455708362023529e+02,-1.796240491451666514e+02
4.613175745603795264e+01,3.999981061040649166e+01,3.397921367724131159e+01,1.999981454415798865e+01,-1.796804331133533310e+02,-1.796530308640491285e+02,-1.796311090549787650e+02
4.698941086052155924e+01,3.999981716783155150e+01,3.397922034650528644e+01,1.999982124921044857e+01,-1.796882848635422931e+02,-1.796603731689467338e+02,-1.796380438030963660e+02
4.786300923226384896e+01,3.999982347708800745e+01,3.397922677179778361e+01,1.999982771163451645e+01,-1.796960308527395682e+02,-1.796676002415893834e+02,-1.796448557419171550e+02
4.875284901033865026e+01,3.999982954673922819e+01,3.397923296183967778e+01,1.999983394020147642e+01,-1.797036737086614266e+02,-1.796747145336111089e+02,-1.796515471822078780e+02
4.965923214503362715e+01,3.999983538502340963e+01,3.397923892503261101e+01,1.999983994336523807e+01,-1.797112160240671415e+02,-1.796817184584155882e+02,-1.796581203938857527e+02
5.058246620031141561e+01,3.999984099986473751e+01,3.397924466947031163e+01,1.999984572927382231e+01,-1.797186603576367645e+02,-1.796886143919928713e+02,-1.796645776067868496e+02
5.152286445817566829e+01,3.999984639888418769e+01,3.397925020294966458e+01,1.999985130578039261e+01,-1.797260092348373064e+02,-1.796954046737236865e+02,-1.796709210114207451e+02
5.248074602497728591e+01,3.999985158940978636e+01,3.397925553298124157e+01,1.999985668045393439e+01,-1.797332651487778321e+02,-1.797020916071710985e+02,-1.796771527597117313e+02
5.345643593969719376e+01,3.999985657848664999e+01,3.397926066679949741e+01,1.999986186058949400e+01,-1.797404305610535573e+02,-1.797086774608609119e+02,-1.796832749657273780e+02
5.445026528424213552e+01,3.999986137288644272e+01,3.397926561137260393e+01,1.999986685321811564e+01,-1.797475079025794571e+02,-1.797151644690490855e+02,-1.796892897063943053e+02
5.546257129579110057e+01,3.999986597911664887e+01,3.397927037341187173e+01,1.999987166511634840e+01,-1.797544995744136429e+02,-1.797215548324788017e+02,-1.796951990222009101e+02
5.649369748123028501e+01,3.999987040342935529e+01,3.397927495938090203e+01,1.999987630281547268e+01,-1.797614079485704224e+02,-1.797278507191254562e+02,-1.797010049178889233e+02
5.754399373371572324e+01,3.999987465182975654e+01,3.397927937550431920e+01,1.999988077261032515e+01,-1.797682353688237811e+02,-1.797340542649309043e+02,-1.797067093631314094e+02
5.861381645140290431e+01,3.999987873008428352e+01,3.397928362777622624e+01,1.999988508056787495e+01,-1.797749841515013429e+02,-1.797401675745269358e+02,-1.797123142932005919e+02
5.970352865838371770e+01,3.999988264372844782e+01,3.397928772196836178e+01,1.999988923253544471e+01,-1.797816565862690936e+02,-1.797461927219481197e+02,-1.797178216096226038e+02
6.081350012787182635e+01,3.999988639807434510e+01,3.397929166363789477e+01,1.999989323414864018e+01,-1.797882549369070375e+02,-1.797521317513344172e+02,-1.797232331808218078e+02
6.194410750767818286e+01,3.999988999821788127e+01,3.397929545813500596e+01,1.999989709083899569e+01,-1.797947814420761858e+02,-1.797579866776235633e+02,-1.797285508427538332e+02
6.309573444801936404e+01,3.999989344904563637e+01,3.397929911061011410e+01,1.999990080784135671e+01,-1.798012383160771606e+02,-1.797637594872336990e+02,-1.797337763995270166e+02
6.426877173170200308e+01,3.999989675524155786e+01,3.397930262602086771e+01,1.999990439020097810e+01,-1.798076277496004423e+02,-1.797694521387365398e+02,-1.797389116240139515e+02
6.546361740672753626e+01,3.999989992129328442e+01,3.397930600913890942e+01,1.999990784278036671e+01,-1.798139519104688304e+02,-1.797750665635207952e+02,-1.797439582584518121e+02
6.668067692136224878e+01,3.999990295149822828e+01,3.397930926455631351e+01,1.999991117026589293e+01,-1.798202129443719741e+02,-1.797806046664467772e+02,-1.797489180150329275e+02
6.792036326171850646e+01,3.999990584996944420e+01,3.397931239669182446e+01,1.999991437717411813e+01,-1.798264129755937404e+02,-1.797860683264917725e+02,-1.797537925764846420e+02
6.918309709189362877e+01,3.999990862064115760e+01,3.397931540979686815e+01,1.999991746785798341e+01,-1.798325541077320224e+02,-1.797914593973869160e+02,-1.797585835966395109e+02
7.046930689671467007e+01,3.999991126727414326e+01,3.397931830796130726e+01,1.999992044651264678e+01,-1.798386384244119256e+02,-1.797967797082454240e+02,-1.797632927009959474e+02
7.177942912713615442e+01,3.999991379346083420e+01,3.397932109511899057e+01,1.999992331718123140e+01,-1.798446679899918195e+02,-1.798020310641823585e+02,-1.797679214872687226e+02
7.311390834834172381e+01,3.999991620263016756e+01,3.397932377505311763e+01,1.999992608376028613e+01,-1.798506448502632793e+02,-1.798072152469266314e+02,-1.797724715259306549e+02
7.447319739059888377e+01,3.999991849805223865e+01,3.397932635140132618e+01,1.999992875000507553e+01,-1.798565710331445757e+02,-1.798123340154248524e+02,-1.797769443607448068e+02
7.585775750291836061e+01,3.999992068284278446e+01,3.397932882766069440e+01,1.999993131953468506e+01,-1.798624485493680538e+02,-1.798173891064376448e+02,-1.797813415092876710e+02
7.726805850957020994e+01,3.999992275996734747e+01,3.397933120719240918e+01,1.999993379583693098e+01,-1.798682793931618846e+02,-1.798223822351281456e+02,-1.797856644634634335e+02
7.870457896950985344e+01,3.999992473224536127e+01,3.397933349322639174e+01,1.999993618227308190e+01,-1.798740655429262461e+02,-1.798273150956438542e+02,-1.797899146900098799e+02
8.016780633876788897e+01,3.999992660235390929e+01,3.397933568886563904e+01,1.999993848208243818e+01,-1.798798089619038478e+02,-1.798321893616905243e+02,-1.797940936309954338e+02
8.165823713585920984e+01,3.999992837283144098e+01,3.397933779709047997e+01,1.999994069838671251e+01,-1.798855115988457953e+02,-1.798370066870998301e+02,-1.797982027043080109e+02
8.317637711026708303e+01,3.999993004608113978e+01,3.397933982076256143e+01,1.999994283419428243e+01,-1.798911753886723091e+02,-1.798417687063901838e+02,-1.798022433041355725e+02
8.472274141405962666e+01,3.999993162437423422e+01,3.397934176262878481e+01,1.999994489240425466e+01,-1.798968022531286977e+02,-1.798464770353205893e+02,-1.798062168014390920e+02
8.629785477669700811e+01,3.999993310985306039e+01,3.397934362532501495e+01,1.999994687581042996e+01,-1.799023941014371530e+02,-1.798511332714388402e+02,-1.798101245444168512e+02
8.790225168308842285e+01,3.999993450453396804e+01,3.397934541137963294e+01,1.999994878710504054e+01,-1.799079528309439979e+02,-1.798557389946229534e+02,-1.798139678589619166e+02
8.953647655495937840e+01,3.999993581031007039e+01,3.397934712321702477e+01,1.999995062888247688e+01,-1.799134803277632670e+02,-1.798602957676170320e+02,-1.798177480491115432e+02
9.120108393559097237e+01,3.999993702895379499e+01,3.397934876316080022e+01,1.999995240364274807e+01,-1.799189784674160251e+02,-1.798648051365611025e+02,-1.798214663974893028e+02
9.289663867799363572e+01,3.999993816211931374e+01,3.397935033343702571e+01,1.999995411379490307e+01,-1.799244491154667571e+02,-1.798692686315153821e+02,-1.798251241657398793e+02
9.462371613657930425e+01,3.999993921134474562e+01,3.397935183617716604e+01,1.999995576166028854e+01,-1.799298941281557518e+02,-1.798736877669792591e+02,-1.798287225949570427e+02
9.638290236239704711e+01,3.999994017805430957e+01,3.397935327342103307e+01,1.999995734947572146e+01,-1.799353153530286704e+02,-1.798780640424049295e+02,-1.798322629061044040e+02
9.817479430199843193e+01,3.999994106356019330e+01,3.397935464711954268e+01,1.999995887939649464e+01,-1.799407146295632174e+02,-1.798823989427056347e+02,-1.798357463004293777e+02
1.000000000000000000e+02,3.999994186906435800e+01,3.397935595913733664e+01,1.999996035349932910e+01,-1.799460937897929114e+02,-1.798866939387595778e+02,-1.798391739598706067e+02
1.018591388054116891e+02,3.999994259566020105e+01,3.397935721125535480e+01,1.999996177378516293e+01,-1.799514546589283839e+02,-1.798909504879085830e+02,-1.798425470474586803e+02
1.037528415818012633e+02,3.999994324433398418e+01,3.397935840517320827e+01,1.999996314218191173e+01,-1.799567990559765178e+02,-1.798951700344523204e+02,-1.798458667077107691e+02
1.056817509213658610e+02,3.999994381596620485e+01,3.397935954251152424e+01,1.999996446054703014e+01,-1.799621287943573122e+02,-1.798993540101384383e+02,-1.798491340670182979e+02
1.076465213629834778e+02,3.999994431133278994e+01,3.397936062481414154e+01,1.999996573067008043e+01,-1.799674456825188997e+02,-1.799035038346478075e+02,-1.798523502340295863e+02
1.096478196143185215e+02,3.999994473110614734e+01,3.397936165355016414e+01,1.999996695427513771e+01,-1.799727515245509153e+02,-1.799076209160762971e+02,-1.798555163000252151e+02
1.116863247780561181e+02,3.999994507585606129e+01,3.397936263011600744e+01,1.999996813302312404e+01,-1.799780481207965295e+02,-1.799117066514121746e+02,-1.798586333392885308e+02
1.137627285823431009e+02,3.999994534605050944e+01,3.397936355583725287e+01,1.999996926851408929e+01,-1.799833372684628046e+02,-1.799157624270103213e+02,-1.798617024094698706e+02
1.158777356155126341e+02,3.999994554205623842e+01,3.397936443197050238e+01,1.999997036228936409e+01,-1.799886207622305676e+02,-1.799197896190618451e+02,-1.798647245519452156e+02
1.180320635651729759e+02,3.999994566413930386e+01,3.397936525970500554e+01,1.999997141583364169e+01,-1.799939003948628908e+02,-1.799237895940616170e+02,-1.798677007921695861e+02
1.202264434617412974e+02,3.999994571246542563e+01,3.397936604016434359e+01,1.999997243057702079e+01,-1.799991779578132025e+02,-1.799277637092711188e+02,-1.798706321400246679e+02
1.224616199265048948e+02,3.999994568710020104e+01,3.397936677440790731e+01,1.999997340789693467e+01,-1.800044552418329431e+02,-1.799317133131794435e+02,-1.798735195901613508e+02
1.247383514242943221e+02,3.999994558800919009e+01,3.397936746343238212e+01,1.999997434911999861e+01,-1.800097340375791362e+02,-1.799356397459601453e+02,-1.798763641223371792e+02
1.270574105208541908e+02,3.999994541505789414e+01,3.397936810817304121e+01,1.999997525552384658e+01,-1.800150161362212771e+02,-1.799395443399264138e+02,-1.798791667017487441e+02
1.294195841449986233e+02,3.999994516801155697e+01,3.397936870950506716e+01,1.999997612833884730e+01,-1.800203033300493018e+02,-1.799434284199824958e+02,-1.798819282793589025e+02
1.318256738556407299e+02,3.999994484653483084e+01,3.397936926824471016e+01,1.999997696874977393e+01,-1.800255974130812433e+02,-1.799472933040734972e+02,-1.798846497922194771e+02
1.342764961137864077e+02,3.999994445019135014e+01,3.397936978515041773e+01,1.999997777789741704e+01,-1.800309001816718251e+02,-1.799511403036323713e+02,-1.798873321637890967e+02
1.367728825595849571e+02,3.999994397844312743e+01,3.397937026092382951e+01,1.999997855688012294e+01,-1.800362134351217378e+02,-1.799549707240247471e+02,-1.798899763042463746e+02
1.393156802945303525e+02,3.999994343064982161e+01,3.397937069621077910e+01,1.999997930675530711e+01,-1.800415389762878249e+02,-1.799587858649917962e+02,-1.798925831107987392e+02
1.419057521689092596e+02,3.999994280606784258e+01,3.397937109160211833e+01,1.999998002854085399e+01,-1.800468786121946323e+02,-1.799625870210912240e+02,-1.798951534679866597e+02
1.445439770745927888e+02,3.999994210384942050e+01,3.397937144763456274e+01,1.999998072321653808e+01,-1.800522341546472944e+02,-1.799663754821361579e+02,-1.798976882479840071e+02
1.472312502432719441e+02,3.999994132304135519e+01,3.397937176479139509e+01,1.999998139172532063e+01,-1.800576074208460398e+02,-1.799701525336331542e+02,-1.799001883108936113e+02
1.499684835502374085e+02,3.999994046258380109e+01,3.397937204350312612e+01,1.999998203497465354e+01,-1.800630002340024021e+02,-1.799739194572179599e+02,-1.799026545050390098e+02
1.527566058238073197e+02,3.999993952130877517e+01,3.397937228414808430e+01,1.999998265383769436e+01,-1.800684144239577620e+02,-1.799776775310903361e+02,-1.799050876672526442e+02
1.555965631605075146e+02,3.999993849793861500e+01,3.397937248705292745e+01,1.999998324915450709e+01,-1.800738518278037930e+02,-1.799814280304478302e+02,-1.799074886231591961e+02
1.584893192461114211e+02,3.999993739108421664e+01,3.397937265249307615e+01,1.999998382173318845e+01,-1.800793142905054935e+02,-1.799851722279182979e+02,-1.799098581874561944e+02
1.614358556826487074e+02,3.999993619924315169e+01,3.397937278069309741e+01,1.999998437235096205e+01,-1.800848036655269766e+02,-1.799889113939916854e+02,-1.799121971641900757e+02
1.644371723214932786e+02,3.999993492079763513e+01,3.397937287182702448e+01,1.999998490175526200e+01,-1.800903218154600722e+02,-1.799926467974509308e+02,-1.799145063470290040e+02
1.674942876026438228e+02,3.999993355401234396e+01,3.397937292601855575e+01,1.999998541066470636e+01,-1.800958706126558582e+02,-1.799963797058025818e+02,-1.799167865195322236e+02
1.706082389003124433e+02,3.999993209703202979e+01,3.397937294334125369e+01,1.999998589977010255e+01,-1.801014519398596576e+02,-1.800001113857066741e+02,-1.799190384554158015e+02
1.737800828749376478e+02,3.999993054787901769e+01,3.397937292381863017e+01,1.999998636973537813e+01,-1.801070676908495898e+02,-1.800038431034064388e+02,-1.799212629188152448e+02
1.770108958317422037e+02,3.999992890445052751e+01,3.397937286742418195e+01,1.999998682119847970e+01,-1.801127197710786731e+02,-1.800075761251579536e+02,-1.799234606645445353e+02
1.803017740859569926e+02,3.999992716451581742e+01,3.397937277408136936e+01,1.999998725477222550e+01,-1.801184100983209646e+02,-1.800113117176597655e+02,-1.799256324383524372e+02
1.836538343348347553e+02,3.999992532571314285e+01,3.397937264366347421e+01,1.999998767104516517e+01,-1.801241406033218482e+02,-1.800150511484824847e+02,-1.799277789771753646e+02
1.870682140365801729e+02,3.999992338554656612e+01,3.397937247599347188e+01,1.999998807058236494e+01,-1.801299132304528428e+02,-1.800187956864989189e+02,-1.799299010093875211e+02
1.905460717963248385e+02,3.999992134138258137e+01,3.397937227084376133e+01,1.999998845392616076e+01,-1.801357299383706163e+02,-1.800225466023145486e+02,-1.799319992550477707e+02
1.940885877592779707e+02,3.999991919044649080e+01,3.397937202793588085e+01,1.999998882159691149e+01,-1.801415927006813433e+02,-1.800263051686984852e+02,-1.799340744261443490e+02
1.976969640111861963e+02,3.999991692981869562e+01,3.397937174694008888e+01,1.999998917409371657e+01,-1.801475035066096950e+02,-1.800300726610153390e+02,-1.799361272268359642e+02
2.013724249862389399e+02,3.999991455643070992e+01,3.397937142747497319e+01,1.999998951189504837e+01,-1.801534643616733717e+02,-1.800338503576578546e+02,-1.799381583536911080e+02
2.051162178825566684e+02,3.999991206706098268e+01,3.397937106910687532e+01,1.999998983545946274e+01,-1.801594772883628650e+02,-1.800376395404806829e+02,-1.799401684959241550e+02
2.089296130854040712e+02,3.999990945833055633e+01,3.397937067134934352e+01,1.999999014522617102e+01,-1.801655443268272165e+02,-1.800414414952351194e+02,-1.799421583356292729e+02
2.128139045982713355e+02,3.999990672669844827e+01,3.397937023366246478e+01,1.999999044161565820e+01,-1.801716675355656037e+02,-1.800452575120053780e+02,-1.799441285480118040e+02
2.167704104819696340e+02,3.999990386845686885e+01,3.397936975545211169e+01,1.999999072503025133e+01,-1.801778489921251492e+02,-1.800490888856462277e+02,-1.799460798016174294e+02
2.208004733018901504e+02,3.999990087972619079e+01,3.397936923606916082e+01,1.999999099585466666e+01,-1.801840907938050691e+02,-1.800529369162222224e+02,-1.799480127585589173e+02
2.249054605835782752e+02,3.999989775644965562e+01,3.397936867480859036e+01,1.999999125445653902e+01,-1.801903950583676135e+02,-1.800568029094487201e+02,-1.799499280747409102e+02
2.290867652767774700e+02,3.999989449438790245e+01,3.397936807090853506e+01,1.999999150118689073e+01,-1.801967639247557997e+02,-1.800606881771350061e+02,-1.799518264000823251e+02
2.333458062281004572e+02,3.999989108911320557e+01,3.397936742354927731e+01,1.999999173638064320e+01,-1.802031995538184503e+02,-1.800645940376290355e+02,-1.799537083787369056e+02
2.376840286624878331e+02,3.999988753600344182e+01,3.397936673185205336e+01,1.999999196035706106e+01,-1.802097041290423647e+02,-1.800685218162647914e+02,-1.799555746493118136e+02
2.421029046736180135e+02,3.999988383023585925e+01,3.397936599487797338e+01,1.999999217342016777e+01,-1.802162798572922782e+02,-1.800724728458119444e+02,-1.799574258450843445e+02
2.466039337234341247e+02,3.999987996678049740e+01,3.397936521162665002e+01,1.999999237585919332e+01,-1.802229289695588363e+02,-1.800764484669278147e+02,-1.799592625942167103e+02
2.511886431509582280e+02,3.999987594039337324e+01,3.397936438103489820e+01,1.999999256794892943e+01,-1.802296537217143566e+02,-1.800804500286121765e+02,-1.799610855199691457e+02
2.558585886905647726e+02,3.999987174560936865e+01,3.397936350197527133e+01,1.999999274995012755e+01,-1.802364563952772016e+02,-1.800844788886649894e+02,-1.799628952409115641e+02
2.606153549998897461e+02,3.999986737673482651e+01,3.397936257325451948e+01,1.999999292210983626e+01,-1.802433392981849067e+02,-1.800885364141467448e+02,-1.799646923711333102e+02
2.654605561975541832e+02,3.999986282783979874e+01,3.397936159361199771e+01,1.999999308466175663e+01,-1.802503047655757769e+02,-1.800926239818423937e+02,-1.799664775204514626e+02
2.703958364108846126e+02,3.999985809274998871e+01,3.397936056171793240e+01,1.999999323782653704e+01,-1.802573551605801754e+02,-1.800967429787282583e+02,-1.799682512946179145e+02
2.754228703338168884e+02,3.999985316503844501e+01,3.397935947617163066e+01,1.999999338181208941e+01,-1.802644928751208511e+02,-1.801008948024424683e+02,-1.799700142955247770e+02
2.805433637951716150e+02,3.999984803801675071e+01,3.397935833549956897e+01,1.999999351681387338e+01,-1.802717203307230136e+02,-1.801050808617590633e+02,-1.799717671214086465e+02
2.857590543374949448e+02,3.999984270472600656e+01,3.397935713815339653e+01,1.999999364301512728e+01,-1.802790399793346126e+02,-1.801093025770657903e+02,-1.799735103670535921e+02
2.910717118066608009e+02,3.999983715792737371e+01,3.397935588250783923e+01,1.999999376058718070e+01,-1.802864543041565071e+02,-1.801135613808458800e+02,-1.799752446239930350e+02
2.964831389524345582e+02,3.999983139009223265e+01,3.397935456685848976e+01,1.999999386968961801e+01,-1.802939658204834075e+02,-1.801178587181639159e+02,-1.799769704807103494e+02
3.019951720402019077e+02,3.999982539339199406e+01,3.397935318941947713e+01,1.999999397047054117e+01,-1.803015770765554464e+02,-1.801221960471559385e+02,-1.799786885228386097e+02
3.076096814740711238e+02,3.999981915968746904e+01,3.397935174832107919e+01,1.999999406306674743e+01,-1.803092906544209768e+02,-1.801265748395239541e+02,-1.799803993333592587e+02
3.133285724315588823e+02,3.999981268051781313e+01,3.397935024160715756e+01,1.999999414760394245e+01,-1.803171091708105109e+02,-1.801309965810350491e+02,-1.799821034927999790e+02
3.191537855100764887e+02,3.999980594708907944e+01,3.397934866723250025e+01,1.999999422419687178e+01,-1.803250352780226251e+02,-1.801354627720254200e+02,-1.799838015794315993e+02
3.250872973854347379e+02,3.999979895026223176e+01,3.397934702306007182e+01,1.999999429294950559e+01,-1.803330716648214320e+02,-1.801399749279088951e+02,-1.799854941694645163e+02
3.311311214825913680e+02,3.999979168054081669e+01,3.397934530685808596e+01,1.999999435395517366e+01,-1.803412210573465870e+02,-1.801445345796911397e+02,-1.799871818372437815e+02
3.372873086588692217e+02,3.999978412805801753e+01,3.397934351629699279e+01,1.999999440729668621e+01,-1.803494862200357431e+02,-1.801491432744886367e+02,-1.799888651554444721e+02
3.435579478998749892e+02,3.999977628256328899e+01,3.397934164894629561e+01,1.999999445304644752e+01,-1.803578699565597958e+02,-1.801538025760534936e+02,-1.799905446952656405e+02
3.499451670283576732e+02,3.999976813340847315e+01,3.397933970227129663e+01,1.999999449126656614e+01,-1.803663751107714006e+02,-1.801585140653035353e+02,-1.799922210266244065e+02
3.564511334262446667e+02,3.999975966953332573e+01,3.397933767362959401e+01,1.999999452200891881e+01,-1.803750045676669060e+02,-1.801632793408583950e+02,-1.799938947183491109e+02
3.630780547701017440e+02,3.999975087945052366e+01,3.397933556026755753e+01,1.999999454531523568e+01,-1.803837612543618718e+02,-1.801681000195817433e+02,-1.799955663383724129e+02
3.698281797802666233e+02,3.999974175123008280e+01,3.397933335931654852e+01,1.999999456121715724e+01,-1.803926481410812528e+02,-1.801729777371292585e+02,-1.799972364539241312e+02
3.767037989839092802e+02,3.999973227248315766e+01,3.397933106778904744e+01,1.999999456973626621e+01,-1.804016682421632538e+02,-1.801779141485033051e+02,-1.799989056317235168e+02
3.837072454922792417e+02,3.999972243034527963e+01,3.397932868257458949e+01,1.999999457088413024e+01,-1.804108246170786458e+02,-1.801829109286141772e+02,-1.800005744381714976e+02
3.908408957924024776e+02,3.999971221145884925e+01,3.397932620043554408e+01,1.999999456466230541e+01,-1.804201203714647193e+02,-1.801879697728476231e+02,-1.800022434395433208e+02
3.981071705534977241e+02,3.999970160195505287e+01,3.397932361800273071e+01,1.999999455106234691e+01,-1.804295586581748978e+02,-1.801930923976399015e+02,-1.800039132021800867e+02
4.055085354483843503e+02,3.999969058743505457e+01,3.397932093177083601e+01,1.999999453006578420e+01,-1.804391426783440124e+02,-1.801982805410595176e+02,-1.800055842926812488e+02
4.130475019901610381e+02,3.999967915295044207e+01,3.397931813809365309e+01,1.999999450164413162e+01,-1.804488756824698044e+02,-1.802035359633963196e+02,-1.800072572780969438e+02
4.207266283844437567e+02,3.999966728298299046e+01,3.397931523317915037e+01,1.999999446575880313e+01,-1.804587609715108272e+02,-1.802088604477584113e+02,-1.800089327261202072e+02
4.285485203974392334e+02,3.999965496142355903e+01,3.397931221308430594e+01,1.999999442236108038e+01,-1.804688018980012316e+02,-1.802142558006763977e+02,-1.800106112052796448e+02
4.365158322401656505e+02,3.999964217155031321e+01,3.397930907370977138e+01,1.999999437139205938e+01,-1.804790018671827454e+02,-1.802197238527155605e+02,-1.800122932851324435e+02
4.446312674691083657e+02,3.999962889600597293e+01,3.397930581079430112e+01,1.999999431278255102e+01,-1.804893643381541892e+02,-1.802252664590965594e+02,-1.800139795364574695e+02
4.528975799036204535e+02,3.999961511677432924e+01,3.397930241990896860e+01,1.999999424645299584e+01,-1.804998928250388417e+02,-1.802308855003239785e+02,-1.800156705314491887e+02
4.613175745603790574e+02,3.999960081515581578e+01,3.397929889645115509e+01,1.999999417231336096e+01,-1.805105908981704204e+02,-1.802365828828236545e+02,-1.800173668439115033e+02
4.698941086052150808e+02,3.999958597174209274e+01,3.397929523563830401e+01,1.999999409026300157e+01,-1.805214621852973949e+02,-1.802423605395887591e+02,-1.800190690494526962e+02
4.786300923226380064e+02,3.999957056638979225e+01,3.397929143250144790e+01,1.999999400019054008e+01,-1.805325103728066836e+02,-1.802482204308346354e+02,-1.800207777256806594e+02
4.875284901033859910e+02,3.999955457819316962e+01,3.397928748187842984e+01,1.999999390197371341e+01,-1.805437392069664497e+02,-1.802541645446630980e+02,-1.800224934523988622e+02
4.965923214503357599e+02,3.999953798545577399e+01,3.397928337840693302e+01,1.999999379547919887e+01,-1.805551524951892759e+02,-1.802601948977360848e+02,-1.800242168118030861e+02
5.058246620031137581e+02,3.999952076566104608e+01,3.397927911651719057e+01,1.999999368056242943e+01,-1.805667541073151767e+02,-1.802663135359586022e+02,-1.800259483886790690e+02
5.152286445817561571e+02,3.999950289544175064e+01,3.397927469042440407e+01,1.999999355706741611e+01,-1.805785479769155586e+02,-1.802725225351721576e+02,-1.800276887706008324e+02
5.248074602497722481e+02,3.999948435054832885e+01,3.397927009412094890e+01,1.999999342482653120e+01,-1.805905381026180976e+02,-1.802788240018576289e+02,-1.800294385481300026e+02
5.345643593969713265e+02,3.999946510581602155e+01,3.397926532136816036e+01,1.999999328366025608e+01,-1.806027285494533317e+02,-1.802852200738489046e+02,-1.800311983150163258e+02
5.445026528424208436e+02,3.999944513513074185e+01,3.397926036568792085e+01,1.999999313337696805e+01,-1.806151234502229102e+02,-1.802917129210568987e+02,-1.800329686683990928e+02
5.546257129579104230e+02,3.999942441139371851e+01,3.397925522035382073e+01,1.999999297377267737e+01,-1.806277270068906091e+02,-1.802983047462044226e+02,-1.800347502090096725e+02
5.649369748123021964e+02,3.999940290648470409e+01,3.397924987838207755e+01,1.999999280463071827e+01,-1.806405434919957713e+02,-1.803049977855721977e+02,-1.800365435413754653e+02
5.754399373371566071e+02,3.999938059122391820e+01,3.397924433252200771e+01,1.999999262572150016e+01,-1.806535772500903363e+02,-1.803117943097558680e+02,-1.800383492740249096e+02
5.861381645140285173e+02,3.999935743533248456e+01,3.397923857524625646e+01,1.999999243680216665e+01,-1.806668326991991762e+02,-1.803186966244349776e+02,-1.800401680196941072e+02
5.970352865838366370e+02,3.999933340739137577e+01,3.397923259874053059e+01,1.999999223761626510e+01,-1.806803143323050449e+02,-1.803257070711534311e+02,-1.800420003955344725e+02
6.081350012787175956e+02,3.999930847479888030e+01,3.397922639489299002e+01,1.999999202789342334e+01,-1.806940267188578275e+02,-1.803328280281122034e+02,-1.800438470233225132e+02
6.194410750767812033e+02,3.999928260372638533e+01,3.397921995528329830e+01,1.999999180734895532e+01,-1.807079745063088865e+02,-1.803400619109742706e+02,-1.800457085296704065e+02
6.309573444801930009e+02,3.999925575907258235e+01,3.397921327117112611e+01,1.999999157568347385e+01,-1.807221624216712144e+02,-1.803474111736822465e+02,-1.800475855462388779e+02
6.426877173170194055e+02,3.999922790441586073e+01,3.397920633348436326e+01,1.999999133258252826e+01,-1.807365952731052232e+02,-1.803548783092886936e+02,-1.800494787099513871e+02
6.546361740672747374e+02,3.999919900196503164e+01,3.397919913280674820e+01,1.999999107771611406e+01,-1.807512779515313639e+02,-1.803624658507998788e+02,-1.800513886632103322e+02
6.668067692136219193e+02,3.999916901250809076e+01,3.397919165936513508e+01,1.999999081073827156e+01,-1.807662154322697177e+02,-1.803701763720326881e+02,-1.800533160541149300e+02
6.792036326171842120e+02,3.999913789535911235e+01,3.397918390301620661e+01,1.999999053128659199e+01,-1.807814127767068442e+02,-1.803780124884853535e+02,-1.800552615366811722e+02
6.918309709189362593e+02,3.999910560830316086e+01,3.397917585323274636e+01,1.999999023898174499e+01,-1.807968751339909090e+02,-1.803859768582221079e+02,-1.800572257710636848e+02
7.046930689671467007e+02,3.999907210753910647e+01,3.397916749908931422e+01,1.999998993342694575e+01,-1.808126077427551763e+02,-1.803940721827723337e+02,-1.800592094237798051e+02
7.177942912713615442e+02,3.999903734762031604e+01,3.397915882924745290e+01,1.999998961420742205e+01,-1.808286159328704912e+02,-1.804023012080439514e+02,-1.800612131679355628e+02
7.311390834834173802e+02,3.999900128139312727e+01,3.397914983194031890e+01,1.999998928088985650e+01,-1.808449051272274630e+02,-1.804106667252519571e+02,-1.800632376834541901e+02
7.447319739059888661e+02,3.999896385993298509e+01,3.397914049495667399e+01,1.999998893302180036e+01,-1.808614808435484633e+02,-1.804191715718620515e+02,-1.800652836573068782e+02
7.585775750291835493e+02,3.999892503247824038e+01,3.397913080562436505e+01,1.999998857013103404e+01,-1.808783486962304323e+02,-1.804278186325498439e+02,-1.800673517837456075e+02
7.726805850957022130e+02,3.999888474636140501e+01,3.397912075079310767e+01,1.999998819172497377e+01,-1.808955143982186371e+02,-1.804366108401756037e+02,-1.800694427645388771e+02
7.870457896950985059e+02,3.999884294693789144e+01,3.397911031681667282e+01,1.999998779728994691e+01,-1.809129837629123188e+02,-1.804455511767755809e+02,-1.800715573092098793e+02
8.016780633876788897e+02,3.999879957751205239e+01,3.397909948953435588e+01,1.999998738629054884e+01,-1.809307627061022004e+02,-1.804546426745692145e+02,-1.800736961352770038e+02
8.165823713585922405e+02,3.999875457926045641e+01,3.397908825425177071e+01,1.999998695816887562e+01,-1.809488572479412198e+02,-1.804638884169838207e+02,-1.800758599684974683e+02
8.317637711026708303e+02,3.999870789115231418e+01,3.397907659572092598e+01,1.999998651234377434e+01,-1.809672735149480900e+02,-1.804732915396956798e+02,-1.800780495431133943e+02
8.472274141405963519e+02,3.999865944986689215e+01,3.397906449811954843e+01,1.999998604821006865e+01,-1.809860177420451350e+02,-1.804828552316890580e+02,-1.800802656021010648e+02
8.629785477669702232e+02,3.999860918970788504e+01,3.397905194502961734e+01,1.999998556513774517e+01,-1.810050962746303185e+02,-1.804925827363328210e+02,-1.800825088974229402e+02
8.790225168308842285e+02,3.999855704251452693e+01,3.397903891941509613e+01,1.999998506247105823e+01,-1.810245155706844571e+02,-1.805024773524752675e+02,-1.800847801902826859e+02
8.953647655495936988e+02,3.999850293756946229e+01,3.397902540359883972e+01,1.999998453952768074e+01,-1.810442822029138767e+02,-1.805125424355574637e+02,-1.800870802513835827e+02
9.120108393559096385e+02,3.999844680150307141e+01,3.397901137923860659e+01,1.999998399559775208e+01,-1.810644028609293628e+02,-1.805227813987453089e+02,-1.800894098611898926e+02
9.289663867799363288e+02,3.999838855819433547e+01,3.397899682730220405e+01,1.999998342994292955e+01,-1.810848843534618027e+02,-1.805331977140810977e+02,-1.800917698101916073e+02
9.462371613657928719e+02,3.999832812866790732e+01,3.397898172804165284e+01,1.999998284179537933e+01,-1.811057336106150899e+02,-1.805437949136542386e+02,-1.800941608991727492e+02
9.638290236239706701e+02,3.999826543098738796e+01,3.397896606096644945e+01,1.999998223035673561e+01,-1.811269576861572261e+02,-1.805545765907924363e+02,-1.800965839394829970e+02
9.817479430199844046e+02,3.999820038014460977e+01,3.397894980481574834e+01,1.999998159479702409e+01,-1.811485637598495941e+02,-1.805655464012728544e+02,-1.800990397533128373e+02
9.999999999999998863e+02,3.999813288794477018e+01,3.397893293752956367e+01,1.999998093425350731e+01,-1.811705591398156230e+02,-1.805767080645542535e+02,-1.801015291739726365e+02
1.018591388054117033e+03,3.999806286288732338e+01,3.397891543621880572e+01,1.999998024782956563e+01,-1.811929512649490164e+02,-1.805880653650299905e+02,-1.801040530461752098e+02
1.037528415818012718e+03,3.999799021004238853e+01,3.397889727713434382e+01,1.999997953459341815e+01,-1.812157477073623681e+02,-1.805996221533028177e+02,-1.801066122263225395e+02
1.056817509213658468e+03,3.999791483092255362e+01,3.397887843563471932e+01,1.999997879357691488e+01,-1.812389561748766482e+02,-1.806113823474815092e+02,-1.801092075827960741e+02
1.076465213629835034e+03,3.999783662334993295e+01,3.397885888615278560e+01,1.999997802377418310e+01,-1.812625845135522695e+02,-1.806233499344996858e+02,-1.801118399962515468e+02
1.096478196143185187e+03,3.999775548131825076e+01,3.397883860216106200e+01,1.999997722414027024e+01,-1.812866407102621906e+02,-1.806355289714576031e+02,-1.801145103599175741e+02
1.116863247780561096e+03,3.999767129484977346e+01,3.397881755613573773e+01,1.999997639358974411e+01,-1.813111328953079351e+02,-1.806479235869870195e+02,-1.801172195798987161e+02
1.137627285823431066e+03,3.999758394984694831e+01,3.397879571951939681e+01,1.999997553099520076e+01,-1.813360693450785845e+02,-1.806605379826397098e+02,-1.801199685754828010e+02
1.158777356155126199e+03,3.999749332793849277e+01,3.397877306268232189e+01,1.999997463518573682e+01,-1.813614584847540527e+02,-1.806733764342998825e+02,-1.801227582794528246e+02
1.180320635651729845e+03,3.999739930631975682e+01,3.397874955488229887e+01,1.999997370494537208e+01,-1.813873088910527258e+02,-1.806864432936211813e+02,-1.801255896384033122e+02
1.202264434617413144e+03,3.999730175758718076e+01,3.397872516422301459e+01,1.999997273901137618e+01,-1.814136292950242080e+02,-1.806997429894886693e+02,-1.801284636130613706e+02
1.224616199265048863e+03,3.999720054956654991e+01,3.397869985761077061e+01,1.999997173607258460e+01,-1.814404285848878260e+02,-1.807132800295060804e+02,-1.801313811786127133e+02
1.247383514242943193e+03,3.999709554513489707e+01,3.397867360070969767e+01,1.999997069476759037e+01,-1.814677158089173759e+02,-1.807270590015087635e+02,-1.801343433250322903e+02
1.270574105208541823e+03,3.999698660203578982e+01,3.397864635789522936e+01,1.999996961368291437e+01,-1.814955001783728505e+02,-1.807410845751032866e+02,-1.801373510574201475e+02
1.294195841449986347e+03,3.999687357268771848e+01,3.397861809220577811e+01,1.999996849135107979e+01,-1.815237910704796036e+02,-1.807553615032335017e+02,-1.801404053963423735e+02
1.318256738556407527e+03,3.999675630398544257e+01,3.397858876529274852e+01,1.999996732624861906e+01,-1.815525980314552612e+02,-1.807698946237738653e+02,-1.801435073781771052e+02
1.342764961137864248e+03,3.999663463709389788e+01,3.397855833736855402e+01,1.999996611679400971e+01,-1.815819307795857469e+02,-1.807846888611506699e+02,-1.801466580554662187e+02
1.367728825595849457e+03,3.999650840723447942e+01,3.397852676715270803e+01,1.999996486134553919e+01,-1.816117992083499360e+02,-1.807997492279911853e+02,-1.801498584972722199e+02
1.393156802945303525e+03,3.999637744346340185e+01,3.397849401181594686e+01,1.999996355819904181e+01,-1.816422133895942466e+02,-1.808150808268018466e+02,-1.801531097895408493e+02
1.419057521689092709e+03,3.999624156844188860e+01,3.397846002692222100e+01,1.999996220558562143e+01,-1.816731835767573955e+02,-1.808306888516752053e+02,-1.801564130354693702e+02
1.445439770745927945e+03,3.999610059819776353e+01,3.397842476636851927e+01,1.999996080166923917e+01,-1.817047202081457442e+02,-1.808465785900271499e+02,-1.801597693558807407e+02
1.472312502432719384e+03,3.999595434187830278e+01,3.397838818232243341e+01,1.999995934454420521e+01,-1.817368339102599180e+02,-1.808627554243637405e+02,-1.801631798896036400e+02
1.499684835502373971e+03,3.999580260149386390e+01,3.397835022515744186e+01,1.999995783223262791e+01,-1.817695355011732943e+02,-1.808792248340791105e+02,-1.801666457938588621e+02
1.527566058238073538e+03,3.999564517165212152e+01,3.397831084338568530e+01,1.999995626268167825e+01,-1.818028359939621907e+02,-1.808959923972848003e+02,-1.801701682446515349e+02
1.555965631605075032e+03,3.999548183928239098e+01,3.397826998358828376e+01,1.999995463376086136e+01,-1.818367466001891444e+02,-1.809130637926702434e+02,-1.801737484371700759e+02
1.584893192461113813e+03,3.999531238334984806e+01,3.397822759034307438e+01,1.999995294325908546e+01,-1.818712787334387428e+02,-1.809304448013963338e+02,-1.801773875861913723e+02
1.614358556826486847e+03,3.999513657455911897e+01,3.397818360614956390e+01,1.999995118888165990e+01,-1.819064440129071158e+02,-1.809481413090212243e+02,-1.801810869264928385e+02
1.644371723214932672e+03,3.999495417504702743e+01,3.397813797135113134e+01,1.999994936824720781e+01,-1.819422542670451719e+02,-1.809661593074599466e+02,-1.801848477132710400e+02
1.674942876026437943e+03,3.999476493806395183e+01,3.397809062405436009e+01,1.999994747888441537e+01,-1.819787215372558933e+02,-1.809845048969776542e+02,-1.801886712225672227e+02
1.706082389003124263e+03,3.999456860764343702e+01,3.397804150004523649e+01,1.999994551822867095e+01,-1.820158580816457459e+02,-1.810031842882177386e+02,-1.801925587517001190e+02
1.737800828749376251e+03,3.999436491825969142e+01,3.397799053270234992e+01,1.999994348361861540e+01,-1.820536763788312555e+02,-1.810222038042646489e+02,-1.801965116197057455e+02
1.770108958317422321e+03,3.999415359447245066e+01,3.397793765290678181e+01,1.999994137229247926e+01,-1.820921891318002395e+02,-1.810415698827425786e+02,-1.802005311677846180e+02
1.803017740859569813e+03,3.999393435055878143e+01,3.397788278894860525e+01,1.999993918138438431e+01,-1.821314092718278346e+02,-1.810612890779503061e+02,-1.802046187597564142e+02
1.836538343348347325e+03,3.999370689013139923e+01,3.397782586642998126e+01,1.999993690792043211e+01,-1.821713499624483461e+02,-1.810813680630326417e+02,-1.802087757825223946e+02
1.870682140365801615e+03,3.999347090574293162e+01,3.397776680816454586e+01,1.999993454881466448e+01,-1.822120246034819502e+02,-1.811018136321895327e+02,-1.802130036465356966e+02
1.905460717963248271e+03,3.999322607847570055e+01,3.397770553407308114e+01,1.999993210086487494e+01,-1.822534468351169608e+02,-1.811226327029229139e+02,-1.802173037862792171e+02
1.940885877592779025e+03,3.999297207751646965e+01,3.397764196107533508e+01,1.999992956074828498e+01,-1.822956305420474905e+02,-1.811438323183219836e+02,-1.802216776607519648e+02
1.976969640111861963e+03,3.999270855971563776e+01,3.397757600297772029e+01,1.999992692501698954e+01,-1.823385898576663919e+02,-1.811654196493877578e+02,-1.802261267539638538e+02
2.013724249862389570e+03,3.999243516913026752e+01,3.397750757035688451e+01,1.999992419009333133e+01,-1.823823391683133934e+02,-1.811874019973973304e+02,-1.802306525754383699e+02
2.051162178825566571e+03,3.999215153655049448e+01,3.397743657043891830e+01,1.999992135226500167e+01,-1.824268931175782313e+02,-1.812097867963082081e+02,-1.802352566607244171e+02
2.089296130854040712e+03,3.999185727900859888e+01,3.397736290697410055e+01,1.999991840768003115e+01,-1.824722666106585791e+02,-1.812325816152038556e+02,-1.802399405719167476e+02
2.128139045982713469e+03,3.999155199927020021e+01,3.397728648010687635e+01,1.999991535234154227e+01,-1.825184748187722050e+02,-1.812557941607803684e+02,-1.802447058981853161e+02
2.167704104819696113e+03,3.999123528530691374e+01,3.397720718624113090e+01,1.999991218210233512e+01,-1.825655331836232449e+02,-1.812794322798753228e+02,-1.802495542563138429e+02
2.208004733018901334e+03,3.999090670974985784e+01,3.397712491790032630e+01,1.999990889265926342e+01,-1.826134574219219928e+02,-1.813035039620396276e+02,-1.802544872912477558e+02
