wout,mag_total_0,mag_total_1,phase_total_0,phase_total_1
1.000000000000000021e-02,1.641779839776324934e+01,1.041149862237269375e+01,-9.379604787301676083e+01,-9.190011500306341929e+01
1.018591388054116906e-02,1.657708408457761706e+01,1.057131944405833579e+01,-9.386640956239499189e+01,-9.193541415776478232e+01
1.037528415818012723e-02,1.673634308851309527e+01,1.073113354927912511e+01,-9.393806736677640856e+01,-9.197136806164814971e+01
1.056817509213658565e-02,1.689557441765207813e+01,1.089094068657351144e+01,-9.401104470489126186e+01,-9.200798880168940741e+01
1.076465213629834890e-02,1.705477704356901469e+01,1.105074059508853068e+01,-9.408536539275826271e+01,-9.204528868472081626e+01
1.096478196143185063e-02,1.721394990001461167e+01,1.121053300423085375e+01,-9.416105364894582408e+01,-9.208328024124386957e+01
1.116863247780561230e-02,1.737309188155461115e+01,1.137031763330495160e+01,-9.423813409981420364e+01,-9.212197622929727459e+01
1.137627285823430978e-02,1.753220184216193189e+01,1.153009419113802458e+01,-9.431663178473182541e+01,-9.216138963838076847e+01
1.158777356155126122e-02,1.769127859376069622e+01,1.168986237569111353e+01,-9.439657216125873163e+01,-9.220153369343434235e+01
1.180320635651730017e-02,1.785032090472059707e+01,1.184962187365599107e+01,-9.447798111028957635e+01,-9.224242185887349876e+01
1.202264434617413176e-02,1.800932749830025514e+01,1.200937236003723818e+01,-9.456088494114835896e+01,-9.228406784267993146e+01
1.224616199265048978e-02,1.816829705103795689e+01,1.216911349771902451e+01,-9.464531039662578848e+01,-9.232648560054830966e+01
1.247383514242943192e-02,1.832722819108829171e+01,1.232884493701608797e+01,-9.473128465795079478e+01,-9.236968934008831411e+01
1.270574105208541887e-02,1.848611949650302932e+01,1.248856631520823868e+01,-9.481883534968589800e+01,-9.241369352508240809e+01
1.294195841449986319e-02,1.864496949345476651e+01,1.264827725605789333e+01,-9.490799054453661654e+01,-9.245851287979864708e+01
1.318256738556407466e-02,1.880377665440166268e+01,1.280797736931004671e+01,-9.499877876806375809e+01,-9.250416239335845603e+01
1.342764961137864199e-02,1.896253939619155915e+01,1.296766625017396812e+01,-9.509122900328688388e+01,-9.255065732415894786e+01
1.367728825595849670e-02,1.912125607810397199e+01,1.312734347878608787e+01,-9.518537069516695226e+01,-9.259801320434925742e+01
1.393156802945303557e-02,1.927992499982815389e+01,1.328700861965334212e+01,-9.528123375495481184e+01,-9.264624584436037935e+01
1.419057521689091883e-02,1.943854439937556577e+01,1.344666122107630102e+01,-9.537884856439200121e+01,-9.269537133748777080e+01
1.445439770745927249e-02,1.959711245092509913e+01,1.360630081455140683e+01,-9.547824597974911853e+01,-9.274540606452610803e+01
1.472312502432718793e-02,1.975562726259923707e+01,1.376592691415154768e+01,-9.557945733568628555e+01,-9.279636669845521624e+01
1.499684835502373276e-02,1.991408687416953427e+01,1.392553901588424381e+01,-9.568251444891960489e+01,-9.284827020917602169e+01
1.527566058238072171e-02,2.007248925468962497e+01,1.408513659702668619e+01,-9.578744962167613153e+01,-9.290113386829585806e+01
1.555965631605074270e-02,2.023083230005401489e+01,1.424471911543675517e+01,-9.589429564491945257e+01,-9.295497525396136496e+01
1.584893192461113431e-02,2.038911383048100134e+01,1.440428600883929278e+01,-9.600308580132656289e+01,-9.300981225573801225e+01
1.614358556826486074e-02,2.054733158791794878e+01,1.456383669408669412e+01,-9.611385386799557295e+01,-9.306566307953445971e+01
1.644371723214931372e-02,2.070548323336728558e+01,1.472337056639299213e+01,-9.622663411886351525e+01,-9.312254625257013174e+01
1.674942876026437252e-02,2.086356634413144917e+01,1.488288699854050279e+01,-9.634146132681141239e+01,-9.318048062838417422e+01
1.706082389003123548e-02,2.102157841097525193e+01,1.504238534005811800e+01,-9.645837076543298849e+01,-9.323948539188364748e+01
1.737800828749375484e-02,2.117951683520394113e+01,1.520186491637030279e+01,-9.657739821044249595e+01,-9.329958006442899432e+01
1.770108958317421002e-02,2.133737892565552130e+01,1.536132502791574872e+01,-9.669857994069531060e+01,-9.336078450895385572e+01
1.803017740859568993e-02,2.149516189560561230e+01,1.552076494923476346e+01,-9.682195273879410991e+01,-9.342311893511720200e+01
1.836538343348346342e-02,2.165286285958362456e+01,1.568018392802425787e+01,-9.694755389125157308e+01,-9.348660390448446833e+01
1.870682140365800480e-02,2.181047883009868826e+01,1.583958118415934635e+01,-9.707542118817994492e+01,-9.355126033573469613e+01
1.905460717963247327e-02,2.196800671427405405e+01,1.599895590868037054e+01,-9.720559292247527594e+01,-9.361710950989028390e+01
1.940885877592778141e-02,2.212544331038882461e+01,1.615830726274429452e+01,-9.733810788846368212e+01,-9.368417307556605067e+01
1.976969640111861035e-02,2.228278530432582727e+01,1.631763437653927795e+01,-9.747300537997483616e+01,-9.375247305423309285e+01
2.013724249862388488e-02,2.244002926592459701e+01,1.647693634816117836e+01,-9.761032518780619682e+01,-9.382203184549385355e+01
2.051162178825565591e-02,2.259717164523869926e+01,1.663621224245089891e+01,-9.775010759654036008e+01,-9.389287223236350144e+01
2.089296130854039965e-02,2.275420876869659281e+01,1.679546108979114649e+01,-9.789239338067601182e+01,-9.396501738655275915e+01
2.128139045982712155e-02,2.291113683516544342e+01,1.695468188486148975e+01,-9.803722380003087267e+01,-9.403849087374723581e+01
2.167704104819695443e-02,2.306795191191760708e+01,1.711387358535025882e+01,-9.818464059437386027e+01,-9.411331665887763620e+01
2.208004733018900309e-02,2.322464993049944226e+01,1.727303511062203611e+01,-9.833468597724133531e+01,-9.418951911137445165e+01
2.249054605835780485e-02,2.338122668250257874e+01,1.743216534033930998e+01,-9.848740262889117503e+01,-9.426712301040144837e+01
2.290867652767772725e-02,2.353767781523793090e+01,1.759126311303691637e+01,-9.864283368834563248e+01,-9.434615355006069137e+01
2.333458062281001943e-02,2.369399882731276108e+01,1.775032722464777279e+01,-9.880102274447278887e+01,-9.442663634456184241e+01
2.376840286624876120e-02,2.385018506411191908e+01,1.790935642697852614e+01,-9.896201382605428876e+01,-9.450859743334831364e+01
2.421029046736177665e-02,2.400623171318401106e+01,1.806834942613351558e+01,-9.912585139078488794e+01,-9.459206328617166548e+01
2.466039337234338796e-02,2.416213379953424578e+01,1.822730488088562595e+01,-9.929258031314796540e+01,-9.467706080810570768e+01
2.511886431509579784e-02,2.431788618082546094e+01,1.838622140099240809e+01,-9.946224587110826576e+01,-9.476361734449095309e+01
2.558585886905645132e-02,2.447348354248976676e+01,1.854509754545588862e+01,-9.963489373156254203e+01,-9.485176068579926323e+01
2.606153549998894980e-02,2.462892039275320855e+01,1.870393182072454863e+01,-9.981056993448568448e+01,-9.494151907240865285e+01
2.654605561975538486e-02,2.478419105757659935e+01,1.886272267883572695e+01,-9.998932087570838689e+01,-9.503292119927650106e+01
2.703958364108843479e-02,2.493928967551601872e+01,1.902146851549690609e+01,-1.001711932882611222e+02,-9.512599622049970094e+01
2.754228703338166065e-02,2.509421019250700624e+01,1.918016766810411866e+01,-1.003562342222166706e+02,-9.522077375374907149e+01
2.805433637951713216e-02,2.524894635657709685e+01,1.933881841369589694e+01,-1.005444910229618927e+02,-9.531728388456487266e+01
2.857590543374946557e-02,2.540349171249181381e+01,1.949741896684096076e+01,-1.007360113078282069e+02,-9.541555717049878638e+01
2.910717118066605269e-02,2.555783959634002045e+01,1.965596747745800243e+01,-1.009308429410082937e+02,-9.551562464508833727e+01
2.964831389524342359e-02,2.571198313006501479e+01,1.981446202856581351e+01,-1.011290340066849467e+02,-9.561751782164725455e+01
3.019951720402016052e-02,2.586591521594870713e+01,1.997290063396206250e+01,-1.013306327802973641e+02,-9.572126869685548911e+01
3.076096814740707924e-02,2.601962853105666440e+01,2.013128123582893636e+01,-1.015356876978684255e+02,-9.582690975413133572e+01
3.133285724315585524e-02,2.617311552165288902e+01,2.028960170226399384e+01,-1.017442473233156619e+02,-9.593447396676685912e+01
3.191537855100761573e-02,2.632636839759390313e+01,2.044785982473442942e+01,-1.019563603136681564e+02,-9.604399480080735430e+01
3.250872973854343484e-02,2.647937912671253713e+01,2.060605331545314201e+01,-1.021720753821106484e+02,-9.615550621765412131e+01
3.311311214825911342e-02,2.663213942920297939e+01,2.076417980467479296e+01,-1.023914412587761973e+02,-9.626904267636876966e+01
3.372873086588688840e-02,2.678464077201924454e+01,2.092223683791034006e+01,-1.026145066492087921e+02,-9.638463913565621510e+01
3.435579478998746633e-02,2.693687436330073481e+01,2.108022187305824602e+01,-1.028413201904170364e+02,-9.650233105550259438e+01
3.499451670283573040e-02,2.708883114683915849e+01,2.123813227745090870e+01,-1.030719304044417584e+02,-9.662215439844234766e+01
3.564511334262442793e-02,2.724050179660246584e+01,2.139596532481468216e+01,-1.033063856493603225e+02,-9.674414563042829229e+01
3.630780547701013827e-02,2.739187671133263535e+01,2.155371819214198581e+01,-1.035447340676530956e+02,-9.686834172127673526e+01
3.698281797802662613e-02,2.754294600923505243e+01,2.171138795647411257e+01,-1.037870235318583667e+02,-9.699478014465798026e+01
3.767037989839089329e-02,2.769369952277893177e+01,2.186897159159334691e+01,-1.040333015874453793e+02,-9.712349887760225897e+01
3.837072454922788034e-02,2.784412679362896625e+01,2.202646596462311379e+01,-1.042836153928377740e+02,-9.725453639948823081e+01
3.908408957924021376e-02,2.799421706773025420e+01,2.218386783253494698e+01,-1.045380116565231248e+02,-9.738793169048067000e+01
3.981071705534973415e-02,2.814395929056936296e+01,2.234117383856126082e+01,-1.047965365711893213e+02,-9.752372422938219643e+01
4.055085354483839444e-02,2.829334210263624172e+01,2.249838050851294469e+01,-1.050592357448325629e+02,-9.766195399086193163e+01
4.130475019901614503e-02,2.844235383511268367e+01,2.265548424700090990e+01,-1.053261541287879197e+02,-9.780266144202273892e+01
4.207266283844442178e-02,2.859098250581481437e+01,2.281248133356100638e+01,-1.055973359426399298e+02,-9.794588753826695893e+01
4.285485203974396390e-02,2.873921581541808479e+01,2.296936791868171923e+01,-1.058728245959776189e+02,-9.809167371841820682e+01
4.365158322401661156e-02,2.888704114399513045e+01,2.312614001973440736e+01,-1.061526626069668708e+02,-9.824006189905615827e+01
4.446312674691089289e-02,2.903444554789784604e+01,2.328279351680592413e+01,-1.064368915177217190e+02,-9.839109446801830927e+01
4.528975799036209088e-02,2.918141575701668344e+01,2.343932414843366985e+01,-1.067255518064666404e+02,-9.854481427702145879e+01
4.613175745603794592e-02,2.932793817245152113e+01,2.359572750724358059e+01,-1.070186827964926692e+02,-9.870126463335382994e+01
4.698941086052155908e-02,2.947399886462960339e+01,2.375199903549152225e+01,-1.073163225619220498e+02,-9.886048929058637214e+01
4.786300923226385201e-02,2.961958357190755464e+01,2.390813402050904557e+01,-1.076185078303095111e+02,-9.902253243825042262e+01
4.875284901033865442e-02,2.976467769969556798e+01,2.406412759005476332e+01,-1.079252738821228945e+02,-9.918743869042670269e+01
4.965923214503362854e-02,2.990926632014295450e+01,2.421997470757283821e+01,-1.082366544471600776e+02,-9.935525307318867760e+01
5.058246620031139895e-02,3.005333417242541216e+01,2.437567016736059600e+01,-1.085526815979768713e+02,-9.952602101084131903e+01
5.152286445817564481e-02,3.019686566367512626e+01,2.453120858964752671e+01,-1.088733856404177516e+02,-9.969978831089487414e+01
5.248074602497725810e-02,3.033984487059578328e+01,2.468658441558844530e+01,-1.091987950013597128e+02,-9.987660114771047404e+01
5.345643593969716389e-02,3.048225554180504560e+01,2.484179190217404454e+01,-1.095289361138001993e+02,-1.000565060447535188e+02
5.445026528424212059e-02,3.062408110094763103e+01,2.499682511706260968e+01,-1.098638332994410689e+02,-1.002395498553881907e+02
5.546257129579107437e-02,3.076530465062230846e+01,2.515167793333699464e+01,-1.102035086489419911e+02,-1.004257797421449965e+02
5.649369748123025253e-02,3.090590897716630892e+01,2.530634402419185847e+01,-1.105479819000414210e+02,-1.006152431543917771e+02
5.754399373371569398e-02,3.104587655634031407e+01,2.546081685755638446e+01,-1.108972703137658442e+02,-1.008079878043364488e+02
5.861381645140287255e-02,3.118518955995688202e+01,2.561508969065874197e+01,-1.112513885489748162e+02,-1.010040616412886862e+02
5.970352865838369355e-02,3.132382986349440301e+01,2.576915556453885259e+01,-1.116103485355143903e+02,-1.012035128241063120e+02
6.081350012787179599e-02,3.146177905473757974e+01,2.592300729851706009e+01,-1.119741593462783698e+02,-1.014063896917506895e+02
6.194410750767814777e-02,3.159901844348425115e+01,2.607663748462691800e+01,-1.123428270685049739e+02,-1.016127407318746236e+02
6.309573444801933051e-02,3.173552907235646003e+01,2.623003848202109367e+01,-1.127163546746632932e+02,-1.018226145473650490e+02
6.426877173170197910e-02,3.187129172875172145e+01,2.638320241136034028e+01,-1.130947418933128148e+02,-1.020360598207625458e+02
6.546361740672750062e-02,3.200628695796798695e+01,2.653612114919640774e+01,-1.134779850803476080e+02,-1.022531252764789400e+02
6.668067692136221691e-02,3.214049507753282597e+01,2.668878632236054571e+01,-1.138660770910639428e+02,-1.024738596407341475e+02
6.792036326171846383e-02,3.227389619276416255e+01,2.684118930237043799e+01,-1.142590071535191640e+02,-1.026983115991336462e+02
6.918309709189363055e-02,3.240647021358600455e+01,2.699332119986932810e+01,-1.146567607436760312e+02,-1.029265297518083742e+02
7.046930689671467019e-02,3.253819687261864146e+01,2.714517285911228583e+01,-1.150593194628534519e+02,-1.031585625660396062e+02
7.177942912713615453e-02,3.266905574455780226e+01,2.729673485251547760e+01,-1.154666609180292198e+02,-1.033944583262928489e+02
7.311390834834172181e-02,3.279902626685255740e+01,2.744799747528583822e+01,-1.158787586055650394e+02,-1.036342650815859656e+02
7.447319739059889143e-02,3.292808776168576657e+01,2.759895074014935545e+01,-1.162955817989451646e+02,-1.038780305901196499e+02
7.585775750291835762e-02,3.305621945925517480e+01,2.774958437219775220e+01,-1.167170954411402448e+02,-1.041258022611003042e+02
7.726805850957021993e-02,3.318340052234655246e+01,2.789988780387443157e+01,-1.171432600422252079e+02,-1.043776270936890427e+02
7.870457896950984467e-02,3.330961007218354553e+01,2.804985017012201354e+01,-1.175740315828945626e+02,-1.046335516130142764e+02
8.016780633876789686e-02,3.343482721553147741e+01,2.819946030371504264e+01,-1.180093614245302405e+02,-1.048936218031900296e+02
8.165823713585922128e-02,3.355903107302474808e+01,2.834870673080291681e+01,-1.184491962264839344e+02,-1.051578830372869078e+02
8.317637711026708291e-02,3.368220080867943977e+01,2.849757766668938430e+01,-1.188934778712406626e+02,-1.054263800042090651e+02
8.472274141405965187e-02,3.380431566054436132e+01,2.864606101187648335e+01,-1.193421433981299344e+02,-1.056991566324371519e+02
8.629785477669701943e-02,3.392535497243536469e+01,2.879414434840210646e+01,-1.197951249462455365e+02,-1.059762560106045868e+02
8.790225168308841985e-02,3.404529822668892791e+01,2.894181493650189907e+01,-1.202523497072254486e+02,-1.062577203048832644e+02
8.953647655495937385e-02,3.416412507786201758e+01,2.908905971162742077e+01,-1.207137398885284796e+02,-1.065435906731639477e+02
9.120108393559096804e-02,3.428181538729666755e+01,2.923586528185424527e+01,-1.211792126878244034e+02,-1.068339071760274948e+02
9.289663867799362318e-02,3.439834925845840985e+01,2.938221792571448887e+01,-1.216486802790873440e+02,-1.071287086845136685e+02
9.462371613657930003e-02,3.451370707294920948e+01,2.952810359049014366e+01,-1.221220498109528165e+02,-1.074280327847077388e+02
9.638290236239706321e-02,3.462786952708685817e+01,2.967350789100443365e+01,-1.225992234178583402e+02,-1.077319156791774333e+02
9.817479430199843593e-02,3.474081766893437617e+01,2.981841610894974792e+01,-1.230800982444478251e+02,-1.080403920853086817e+02
1.000000000000000056e-01,3.485253293565524757e+01,2.996281319279184885e+01,-1.235645664836681590e+02,-1.083534951306034770e+02
1.018591388054116975e-01,3.496299719106266224e+01,3.010668375829091659e+01,-1.240525154289333898e+02,-1.086712562450206576e+02
1.037528415818012584e-01,3.507219276322409485e+01,3.025001208968102517e+01,-1.245438275406709181e+02,-1.089937050504580327e+02
1.056817509213658496e-01,3.518010248197661127e+01,3.039278214155016400e+01,-1.250383805274985178e+02,-1.093208692474941728e+02
1.076465213629834994e-01,3.528670971620225316e+01,3.053497754146381737e+01,-1.255360474422114976e+02,-1.096527744995278368e+02
1.096478196143185202e-01,3.539199841070897889e+01,3.067658159337508650e+01,-1.260366967926825339e+02,-1.099894443144754348e+02
1.116863247780561230e-01,3.549595312255843282e+01,3.081757728186497403e+01,-1.265401926676997135e+02,-1.103308999242085093e+02
1.137627285823430978e-01,3.559855905667958353e+01,3.095794727725608197e+01,-1.270463948776837100e+02,-1.106771601619379766e+02
1.158777356155126226e-01,3.569980210060540315e+01,3.109767394164290621e+01,-1.275551591101412612e+02,-1.110282413377754693e+02
1.180320635651729844e-01,3.579966885816983080e+01,3.123673933588125706e+01,-1.280663370996230697e+02,-1.113841571127287011e+02
1.202264434617413141e-01,3.589814668200275349e+01,3.137512522757859657e+01,-1.285797768118661111e+02,-1.117449183714129930e+02
1.224616199265049082e-01,3.599522370466301879e+01,3.151281310012586090e+01,-1.290953226417104247e+02,-1.121105330937893143e+02
1.247383514242943192e-01,3.609088886825298914e+01,3.164978416280987616e+01,-1.296128156242905050e+02,-1.124810062262657055e+02
1.270574105208542026e-01,3.618513195236253210e+01,3.178601936204366396e+01,-1.301320936589143571e+02,-1.128563395525279986e+02
1.294195841449986284e-01,3.627794360019673547e+01,3.192149939374970913e+01,-1.306529917449549600e+02,-1.132365315644924522e+02
1.318256738556407293e-01,3.636931534274851430e+01,3.205620471692854068e+01,-1.311753422289982041e+02,-1.136215773338031454e+02
1.342764961137864199e-01,3.645923962088587444e+01,3.219011556844220223e+01,-1.316989750624092039e+02,-1.140114683843231944e+02
1.367728825595849462e-01,3.654770980523345258e+01,3.232321197903828391e+01,-1.322237180684059012e+02,-1.144061925660975021e+02
1.393156802945303419e-01,3.663472021373834053e+01,3.245547379063688709e+01,-1.327493972176591228e+02,-1.148057339312912717e+02
1.419057521689092716e-01,3.672026612682230962e+01,3.258688067489778462e+01,-1.332758369113746824e+02,-1.152100726126347467e+02
1.445439770745927111e-01,3.680434380003512729e+01,3.271741215308099981e+01,-1.338028602707591688e+02,-1.156191847049289407e+02
1.472312502432718551e-01,3.688695047413729355e+01,3.284704761720809785e+01,-1.343302894317203879e+02,-1.160330421501907807e+02
1.499684835502373137e-01,3.696808438255458640e+01,3.297576635252605115e+01,-1.348579458436161360e+02,-1.164516126270365817e+02
1.527566058238072344e-01,3.704774475616180496e+01,3.310354756126937303e+01,-1.353856505708334055e+02,-1.168748594449224356e+02
1.555965631605074340e-01,3.712593182536817693e+01,3.323037038770942786e+01,-1.359132245959575016e+02,-1.173027414438760303e+02
1.584893192461113431e-01,3.720264681949247887e+01,3.335621394447284160e+01,-1.364404891232792920e+02,-1.177352129003677277e+02
1.614358556826486213e-01,3.727789196343137945e+01,3.348105734010356827e+01,-1.369672658813867940e+02,-1.181722234399794047e+02
1.644371723214931580e-01,3.735167047164025433e+01,3.360487970783515976e+01,-1.374933774235922215e+02,-1.186137179575350302e+02
1.674942876026437322e-01,3.742398653946097653e+01,3.372766023553197812e+01,-1.380186474249647404e+02,-1.190596365453602772e+02
1.706082389003123478e-01,3.749484533184627821e+01,3.384937819674926374e+01,-1.385429009747634836e+02,-1.195099144303355985e+02
1.737800828749375415e-01,3.756425296954481041e+01,3.397001298285386639e+01,-1.390659648631003336e+02,-1.199644819204016102e+02
1.770108958317421211e-01,3.763221651282496794e+01,3.408954413613801648e+01,-1.395876678607069437e+02,-1.204232643611627225e+02
1.803017740859569062e-01,3.769874394282877006e+01,3.420795138385032175e+01,-1.401078409907305797e+02,-1.208861821032191841e+02
1.836538343348346480e-01,3.776384414065928752e+01,3.432521467305865315e+01,-1.406263177915434994e+02,-1.213531504808350263e+02
1.870682140365800550e-01,3.782752686431649636e+01,3.444131420625103601e+01,-1.411429345696157895e+02,-1.218240798025210978e+02
1.905460717963247397e-01,3.788980272360683443e+01,3.455623047757200794e+01,-1.416575306415739419e+02,-1.222988753540793709e+02
1.940885877592778419e-01,3.795068315316052576e+01,3.466994430958303042e+01,-1.421699485646447840e+02,-1.227774374146149370e+02
1.976969640111860826e-01,3.801018038369905128e+01,3.478243689042779607e+01,-1.426800343547649277e+02,-1.232596612859762644e+02
2.013724249862388627e-01,3.806830741170148258e+01,3.489368981127525871e+01,-1.431876376917208233e+02,-1.237454373360341577e+02
2.051162178825565729e-01,3.812507796762395884e+01,3.500368510390590160e+01,-1.436926121107736094e+02,-1.242346510561520319e+02
2.089296130854039757e-01,3.818050648283063708e+01,3.511240527830045721e+01,-1.441948151803085523e+02,-1.247271831331386949e+02
2.128139045982712363e-01,3.823460805539725982e+01,3.521983336008386800e+01,-1.446941086651419255e+02,-1.252229095359070783e+02
2.167704104819695166e-01,3.828739841494999041e+01,3.532595292767258854e+01,-1.451903586752054025e+02,-1.257217016169898187e+02
2.208004733018900378e-01,3.833889388670242937e+01,3.543074814896877456e+01,-1.456834357994176798e+02,-1.262234262289869378e+02
2.249054605835781873e-01,3.838911135485301429e+01,3.553420381744187750e+01,-1.461732152246393071e+02,-1.267279458559390406e+02
2.290867652767773488e-01,3.843806822550276792e+01,3.563630538743571208e+01,-1.466595768396906010e+02,-1.272351187595372721e+02
2.333458062281003331e-01,3.848578238925028216e+01,3.573703900853816151e+01,-1.471424053244953711e+02,-1.277447991399934182e+02
2.376840286624877230e-01,3.853227218361696771e+01,3.583639155885072825e+01,-1.476215902244874769e+02,-1.282568373113062137e+02
2.421029046736178914e-01,3.857755635545034067e+01,3.593435067699638807e+01,-1.480970260104927831e+02,-1.287710798905705474e+02
2.466039337234340045e-01,3.862165402344732001e+01,3.603090479270696989e+01,-1.485686121243668936e+02,-1.292873700008855735e+02
2.511886431509580686e-01,3.866458464093332736e+01,3.612604315583492109e+01,-1.490362530107301211e+02,-1.298055474873300739e+02
2.558585886905645479e-01,3.870636795902532867e+01,3.621975586363967636e+01,-1.494998581352024871e+02,-1.303254491453845958e+02
2.606153549998895258e-01,3.874702399029956013e+01,3.631203388620532024e+01,-1.499593419895896886e+02,-1.308469089610949538e+02
2.654605561975538763e-01,3.878657297307660912e+01,3.640286908985368086e+01,-1.504146240845203977e+02,-1.313697583621900264e+02
2.703958364108843271e-01,3.882503533642785953e+01,3.649225425842629278e+01,-1.508656289300741378e+02,-1.318938264792882649e+02
2.754228703338166273e-01,3.886243166599879828e+01,3.658018311231838027e+01,-1.513122860049739700e+02,-1.324189404162550829e+02
2.805433637951713077e-01,3.889878267073564189e+01,3.666665032515939515e+01,-1.517545297149474095e+02,-1.329449255287057952e+02
2.857590543374946557e-01,3.893410915059318000e+01,3.675165153804685758e+01,-1.521922993408816183e+02,-1.334716057095893120e+02
2.910717118066605269e-01,3.896843196529226816e+01,3.683518337125288156e+01,-1.526255389774171647e+02,-1.339988036807335732e+02
2.964831389524342220e-01,3.900177200418725221e+01,3.691724343333714131e+01,-1.530541974626373474e+02,-1.345263412891899009e+02
3.019951720402015982e-01,3.903415015729438409e+01,3.699783032761409629e+01,-1.534782282995167009e+02,-1.350540398071765935e+02
3.076096814740708063e-01,3.906558728752414567e+01,3.707694365593732755e+01,-1.538975895697954002e+02,-1.355817202343939414e+02
3.133285724315585385e-01,3.909610420415214094e+01,3.715458401977934244e+01,-1.543122438409456265e+02,-1.361092036014659925e+02
3.191537855100761711e-01,3.912572163755542221e+01,3.723075301860052377e+01,-1.547221580668882268e+02,-1.366363112732543925e+02
3.250872973854344039e-01,3.915446021523334252e+01,3.730545324551669495e+01,-1.551273034831101825e+02,-1.371628652507918105e+02
3.311311214825911065e-01,3.918234043912539732e+01,3.737868828029014168e+01,-1.555276554968201026e+02,-1.376886884705916998e+02
3.372873086588689118e-01,3.920938266423129903e+01,3.745046267968427856e+01,-1.559231935727624716e+02,-1.382136051001126020e+02
3.435579478998746494e-01,3.923560707853253859e+01,3.752078196523709153e+01,-1.563139011152936177e+02,-1.387374408281839351e+02
3.499451670283573179e-01,3.926103368420888984e+01,3.758965260852258439e+01,-1.566997653473012519e+02,-1.392600231492380374e+02
3.564511334262442932e-01,3.928568228013783425e+01,3.765708201398349786e+01,-1.570807771865262339e+02,-1.397811816402408169e+02
3.630780547701014105e-01,3.930957244565989583e+01,3.772307849943099711e+01,-1.574569311198216610e+02,-1.403007482292667021e+02
3.698281797802662751e-01,3.933272352558882545e+01,3.778765127431935156e+01,-1.578282250758573184e+02,-1.408185574547268573e+02
3.767037989839089884e-01,3.935515461644106949e+01,3.785081041591445228e+01,-1.581946602967522608e+02,-1.413344467143261056e+02
3.837072454922788589e-01,3.937688455385578834e+01,3.791256684348470429e+01,-1.585562412090894497e+02,-1.418482565028991473e+02
3.908408957924021099e-01,3.939793190117347876e+01,3.797293229065178366e+01,-1.589129752947390273e+02,-1.423598306383553904e+02
3.981071705534973137e-01,3.941831493913851148e+01,3.803191927604594724e+01,-1.592648729618890400e+02,-1.428690164750432530e+02
4.055085354483839444e-01,3.943805165668868540e+01,3.808954107241702047e+01,-1.596119474166527539e+02,-1.433756651039325618e+02
4.130475019901613809e-01,3.945715974279287508e+01,3.814581167435681408e+01,-1.599542145355951845e+02,-1.438796315391000746e+02
4.207266283844441901e-01,3.947565657929663274e+01,3.820074576479265716e+01,-1.602916927394934987e+02,-1.443807748900929653e+02
4.285485203974396251e-01,3.949355923473378738e+01,3.825435868041375898e+01,-1.606244028686174090e+02,-1.448789585198355496e+02
4.365158322401661573e-01,3.951088445906202651e+01,3.830666637619333414e+01,-1.609523680597918371e+02,-1.453740501878325233e+02
4.446312674691088040e-01,3.952764867927906778e+01,3.835768538916940429e+01,-1.612756136254753869e+02,-1.458659221785106013e+02
4.528975799036208949e-01,3.954386799587619805e+01,3.840743280164553397e+01,-1.615941669350659993e+02,-1.463544514146268227e+02
4.613175745603795286e-01,3.955955818008581559e+01,3.845592620397064110e+01,-1.619080572986198092e+02,-1.468395195557533555e+02
4.698941086052153548e-01,3.957473467187958960e+01,3.850318365705339829e+01,-1.622173158531468289e+02,-1.473210130819303458e+02
4.786300923226382564e-01,3.958941257867445529e+01,3.854922365476233637e+01,-1.625219754516255080e+02,-1.477988233626525414e+02
4.875284901033862806e-01,3.960360667470391149e+01,3.859406508635743194e+01,-1.628220705548570777e+02,-1.482728467114274622e+02
4.965923214503361049e-01,3.961733140101324580e+01,3.863772719909297848e+01,-1.631176371262622524e+02,-1.487429844262090057e+02
5.058246620031140450e-01,3.963060086603768184e+01,3.868022956112454835e+01,-1.634087125297032230e+02,-1.492091428160715338e+02
5.152286445817564342e-01,3.964342884672366552e+01,3.872159202484582607e+01,-1.636953354303976482e+02,-1.496712332145454809e+02
5.248074602497725394e-01,3.965582879015466489e+01,3.876183469077278687e+01,-1.639775456989747511e+02,-1.501291719800849194e+02
5.345643593969716667e-01,3.966781381564381803e+01,3.880097787208489990e+01,-1.642553843187097300e+02,-1.505828804841819135e+02
5.445026528424211643e-01,3.967939671725712003e+01,3.883904205992417502e+01,-1.645288932959576584e+02,-1.510322850876809753e+02
5.546257129579107437e-01,3.969058996673217621e+01,3.887604788954418211e+01,-1.647981155737967640e+02,-1.514773171058794787e+02
5.649369748123025392e-01,3.970140571675880636e+01,3.891201610739238248e+01,-1.650630949488779606e+02,-1.519179127630261235e+02
5.754399373371569260e-01,3.971185580458922715e+01,3.894696753920009513e+01,-1.653238759914683840e+02,-1.523540131368511936e+02
5.861381645140287810e-01,3.972195175594694661e+01,3.898092305914551758e+01,-1.655805039686663349e+02,-1.527855640937782198e+02
5.970352865838368661e-01,3.973170478920482651e+01,3.901390356014666594e+01,-1.658330247707559408e+02,-1.532125162154765974e+02
6.081350012787178905e-01,3.974112581980439529e+01,3.904592992533213192e+01,-1.660814848406635633e+02,-1.536348247174214237e+02
6.194410750767814777e-01,3.975022546488959563e+01,3.907702300072965329e+01,-1.663259311064693406e+02,-1.540524493601263032e+02
6.309573444801933606e-01,3.975901404812989881e+01,3.910720356920407426e+01,-1.665664109169229334e+02,-1.544653543537140195e+02
6.426877173170196800e-01,3.976750160470881923e+01,3.913649232566864100e+01,-1.668029719799050099e+02,-1.548735082564797949e+02
6.546361740672750340e-01,3.977569788645536875e+01,3.916490985358640131e+01,-1.670356623037739894e+02,-1.552768838680940462e+02
6.668067692136222524e-01,3.978361236709729809e+01,3.919247660277112288e+01,-1.672645301415316510e+02,-1.556754581180752268e+02
6.792036326171846383e-01,3.979125424761621588e+01,3.921921286849097044e+01,-1.674896239377382869e+02,-1.560692119501479453e+02
6.918309709189366385e-01,3.979863246168606139e+01,3.924513877187193600e+01,-1.677109922781057207e+02,-1.564581302030810832e+02
7.046930689671468961e-01,3.980575568117736651e+01,3.927027424159224722e+01,-1.679286838416944931e+02,-1.568422014885799172e+02
7.177942912713618506e-01,3.981263232171135513e+01,3.929463899685399753e+01,-1.681427473556385621e+02,-1.572214180667818368e+02
7.311390834834176067e-01,3.981927054824856782e+01,3.931825253161333933e+01,-1.683532315523206080e+02,-1.575957757198811748e+02
7.447319739059892196e-01,3.982567828069817750e+01,3.934113410004648159e+01,-1.685601851289204376e+02,-1.579652736243820073e+02
7.585775750291839925e-01,3.983186319953499321e+01,3.936330270322470426e+01,-1.687636567092566509e+02,-1.583299142224503555e+02
7.726805850957025879e-01,3.983783275141230007e+01,3.938477707696836916e+01,-1.689636948078441208e+02,-1.586897030928107313e+02
7.870457896950989740e-01,3.984359415475950783e+01,3.940557568084700080e+01,-1.691603477960875921e+02,-1.590446488216022942e+02
8.016780633876793294e-01,3.984915440535450415e+01,3.942571668828976783e+01,-1.693536638705336088e+02,-1.593947628735828346e+02
8.165823713585927957e-01,3.985452028186163886e+01,3.944521797776878458e+01,-1.695436910231027809e+02,-1.597400594640399731e+02
8.317637711026708569e-01,3.985969835132685546e+01,3.946409712501573352e+01,-1.697304770132262774e+02,-1.600805554317415442e+02
8.472274141405963244e-01,3.986469497462245926e+01,3.948237139623099523e+01,-1.699140693418098920e+02,-1.604162701132292170e+02
8.629785477669702498e-01,3.986951631183455191e+01,3.950005774224331390e+01,-1.700945152269515859e+02,-1.607472252187325807e+02
8.790225168308842818e-01,3.987416832758704999e+01,3.951717279357727364e+01,-1.702718615813398060e+02,-1.610734447099549413e+02
8.953647655495936553e-01,3.987865679629674531e+01,3.953373285638546264e+01,-1.704461549912599025e+02,-1.613949546799566974e+02
9.120108393559096527e-01,3.988298730735445474e+01,3.954975390920183997e+01,-1.706174416971393271e+02,-1.617117832353374922e+02
9.289663867799362595e-01,3.988716527022796754e+01,3.956525160047298328e+01,-1.707857675755629998e+02,-1.620239603808947777e+02
9.462371613657929448e-01,3.989119591948301036e+01,3.958024124682398082e+01,-1.709511781226919425e+02,-1.623315179069145699e+02
9.638290236239704933e-01,3.989508431971877656e+01,3.959473783201637076e+01,-1.711137184390209427e+02,-1.626344892792284895e+02
9.817479430199843593e-01,3.989883537041544770e+01,3.960875600655588613e+01,-1.712734332154114725e+02,-1.629329095321506600e+02
1.000000000000000000e+00,3.990245381069104269e+01,3.962231008790875819e+01,-1.714303667203393502e+02,-1.632268151643899330e+02
1.018591388054116864e+00,3.990594422396577556e+01,3.963541406128614852e+01,-1.715845627882979727e+02,-1.635162440380141504e+02
1.037528415818012695e+00,3.990931104253222372e+01,3.964808158095716095e+01,-1.717360648092993642e+02,-1.638012352805268392e+02
1.056817509213658468e+00,3.991255855203001346e+01,3.966032597205230559e+01,-1.718849157194184443e+02,-1.640818291901011321e+02
1.076465213629834938e+00,3.991569089582418428e+01,3.967216023282011861e+01,-1.720311579923265128e+02,-1.643580671440014953e+02
1.096478196143185091e+00,3.991871207928633680e+01,3.968359703730126142e+01,-1.721748336317628798e+02,-1.646299915102098623e+02
1.116863247780561119e+00,3.992162597397851442e+01,3.969464873838542474e+01,-1.723159841648948714e+02,-1.648976455622614594e+02
1.137627285823431089e+00,3.992443632173925039e+01,3.970532737121804701e+01,-1.724546506365185223e+02,-1.651610733972836158e+02
1.158777356155126226e+00,3.992714673867225628e+01,3.971564465692482315e+01,-1.725908736040543090e+02,-1.654203198572211875e+02
1.180320635651729733e+00,3.992976071903778745e+01,3.972561200662400438e+01,-1.727246931332937265e+02,-1.656754304532224467e+02
1.202264434617413169e+00,3.993228163904723971e+01,3.973524052569712950e+01,-1.728561487948543345e+02,-1.659264512931517856e+02
1.224616199265048833e+00,3.993471276056164498e+01,3.974454101829104502e+01,-1.729852796613030819e+02,-1.661734290121875404e+02
1.247383514242943248e+00,3.993705723469480517e+01,3.975352399202479603e+01,-1.731121243049090026e+02,-1.664164107064565314e+02
1.270574105208541971e+00,3.993931810532205162e+01,3.976219966287685281e+01,-1.732367207959881910e+02,-1.666554438696519185e+02
1.294195841449986339e+00,3.994149831249563221e+01,3.977057796022926794e+01,-1.733591067018050467e+02,-1.668905763325750229e+02
1.318256738556407237e+00,3.994360069576798367e+01,3.977866853204672282e+01,-1.734793190859967922e+02,-1.671218562055378527e+02
1.342764961137864255e+00,3.994562799742400472e+01,3.978648075016985075e+01,-1.735973945084882075e+02,-1.673493318235592540e+02
1.367728825595849518e+00,3.994758286562386473e+01,3.979402371570340335e+01,-1.737133690258654894e+02,-1.675730516942846293e+02
1.393156802945303863e+00,3.994946785745761986e+01,3.980130626448114128e+01,-1.738272781921804153e+02,-1.677930644485560663e+02
1.419057521689092605e+00,3.995128544191315711e+01,3.980833697259036796e+01,-1.739391570601560204e+02,-1.680094187935583250e+02
1.445439770745927888e+00,3.995303800275913630e+01,3.981512416194060933e+01,-1.740490401827672713e+02,-1.682221634684644869e+02
1.472312502432719494e+00,3.995472784134430810e+01,3.982167590586144001e+01,-1.741569616151717241e+02,-1.684313472025029625e+02
1.499684835502373748e+00,3.995635717931498476e+01,3.982800003471616179e+01,-1.742629549169646737e+02,-1.686370186753682390e+02
1.527566058238073232e+00,3.995792816125236868e+01,3.983410414151855861e+01,-1.743670531547372207e+02,-1.688392264798964675e+02
1.555965631605074950e+00,3.995944285723118128e+01,3.983999558754134540e+01,-1.744692889049143787e+02,-1.690380190869266812e+02
1.584893192461114264e+00,3.996090326530163139e+01,3.984568150790554597e+01,-1.745696942568526708e+02,-1.692334448122697381e+02
1.614358556826487101e+00,3.996231131389616564e+01,3.985116881714111514e+01,-1.746683008161777195e+02,-1.694255517857063751e+02
1.644371723214932413e+00,3.996366886416281261e+01,3.985646421470996614e+01,-1.747651397083427582e+02,-1.696143879219374639e+02
1.674942876026438210e+00,3.996497771222698248e+01,3.986157419048324613e+01,-1.748602415823905289e+02,-1.698000008934095035e+02
1.706082389003124256e+00,3.996623959138317161e+01,3.986650503016553415e+01,-1.749536366149019102e+02,-1.699824381049405133e+02
1.737800828749376247e+00,3.996745617421860430e+01,3.987126282065948146e+01,-1.750453545141153029e+02,-1.701617466700722332e+02
1.770108958317422099e+00,3.996862907467026105e+01,3.987585345536482606e+01,-1.751354245242011416e+02,-1.703379733890755290e+02
1.803017740859569784e+00,3.996975985001715514e+01,3.988028263940652351e+01,-1.752238754296783441e+02,-1.705111647285386880e+02
1.836538343348347313e+00,3.997085000280952727e+01,3.988455589478737551e+01,-1.753107355599589141e+02,-1.706813668024683182e+02
1.870682140365801827e+00,3.997190098273649994e+01,3.988867856546093549e+01,-1.753960327940070272e+02,-1.708486253548356899e+02
1.905460717963248340e+00,3.997291418843409616e+01,3.989265582232111740e+01,-1.754797945651023099e+02,-1.710129857435022416e+02
1.940885877592779529e+00,3.997389096923492247e+01,3.989649266810538109e+01,-1.755620478656948649e+02,-1.711744929254602141e+02
1.976969640111861937e+00,3.997483262686141359e+01,3.990019394220881566e+01,-1.756428192523415248e+02,-1.713331914433260010e+02
2.013724249862389293e+00,3.997574041706408110e+01,3.990376432540689677e+01,-1.757221348507140135e+02,-1.714891254130260450e+02
2.051162178825564730e+00,3.997661555120632215e+01,3.990720834448499943e+01,-1.758000203606682703e+02,-1.716423385126166181e+02
2.089296130854038758e+00,3.997745919779736568e+01,3.991053037677330906e+01,-1.758765010613680033e+02,-1.717928739721812406e+02
2.128139045982711419e+00,3.997827248397481270e+01,3.991373465458580228e+01,-1.759516018164520403e+02,-1.719407745647505124e+02
2.167704104819693889e+00,3.997905649693828423e+01,3.991682526956257959e+01,-1.760253470792391113e+02,-1.720860825981927746e+02
2.208004733018899213e+00,3.997981228533558351e+01,3.991980617691498878e+01,-1.760977608979623312e+02,-1.722288399080236161e+02
2.249054605835780318e+00,3.998054086060280099e+01,3.992268119957308414e+01,-1.761688669210261082e+02,-1.723690878510863342e+02
2.290867652767772267e+00,3.998124319825976869e+01,3.992545403223562062e+01,-1.762386884022797062e+02,-1.725068673000557169e+02
2.333458062281001943e+00,3.998192023916216442e+01,3.992812824532251170e+01,-1.763072482063008977e+02,-1.726422186387204363e+02
2.376840286624875898e+00,3.998257289071163001e+01,3.993070728883019171e+01,-1.763745688136843626e+02,-1.727751817580001727e+02
2.421029046736177470e+00,3.998320202802517542e+01,3.993319449609049343e+01,-1.764406723263294623e+02,-1.729057960526565125e+02
2.466039337234338547e+00,3.998380849506514778e+01,3.993559308743360248e+01,-1.765055804727223858e+02,-1.730341004186572889e+02
2.511886431509579687e+00,3.998439310573095185e+01,3.993790617375603347e+01,-1.765693146132082916e+02,-1.731601332511563385e+02
2.558585886905645257e+00,3.998495664491377966e+01,3.994013675999465818e+01,-1.766318957452493521e+02,-1.732839324430521799e+02
2.606153549998895258e+00,3.998549986951544355e+01,3.994228774850768104e+01,-1.766933445086640688e+02,-1.734055353840905696e+02
2.654605561975539096e+00,3.998602350943254891e+01,3.994436194236399018e+01,-1.767536811908449010e+02,-1.735249789604779096e+02
2.703958364108843160e+00,3.998652826850697295e+01,3.994636204854208472e+01,-1.768129257319504006e+02,-1.736422995549731070e+02
2.754228703338166273e+00,3.998701482544391439e+01,3.994829068103994985e+01,-1.768710977300689819e+02,-1.737575330474280122e+02
2.805433637951713077e+00,3.998748383469831680e+01,3.995015036389730056e+01,-1.769282164463511720e+02,-1.738707148157471352e+02
2.857590543374946446e+00,3.998793592733099445e+01,3.995194353413184984e+01,-1.769843008101076123e+02,-1.739818797372391259e+02
2.910717118066604936e+00,3.998837171183510719e+01,3.995367254459092976e+01,-1.770393694238709372e+02,-1.740910621903337017e+02
2.964831389524342331e+00,3.998879177493424919e+01,3.995533966672028470e+01,-1.770934405684183446e+02,-1.741982960566390375e+02
3.019951720402016537e+00,3.998919668235289748e+01,3.995694709325159977e+01,-1.771465322077535802e+02,-1.743036147233159454e+02
3.076096814740707952e+00,3.998958697956019392e+01,3.995849694081037029e+01,-1.771986619940458638e+02,-1.744070510857457350e+02
3.133285724315585608e+00,3.998996319248793441e+01,3.995999125244592420e+01,-1.772498472725249314e+02,-1.745086375504709508e+02
3.191537855100761600e+00,3.999032582822361093e+01,3.996143200008518903e+01,-1.773001050863289549e+02,-1.746084060383882388e+02
3.250872973854344039e+00,3.999067537567939468e+01,3.996282108691207924e+01,-1.773494521813062477e+02,-1.747063879881737876e+02
3.311311214825911176e+00,3.999101230623774939e+01,3.996416034967401743e+01,-1.773979050107670616e+02,-1.748026143599235809e+02
3.372873086588688896e+00,3.999133707437457019e+01,3.996545156091749362e+01,-1.774454797401864994e+02,-1.748971156389904991e+02
3.435579478998746605e+00,3.999165011826050176e+01,3.996669643115438220e+01,-1.774921922518556698e+02,-1.749899218400021539e+02
3.499451670283573623e+00,3.999195186034130245e+01,3.996789661096055113e+01,-1.775380581494820547e+02,-1.750810625110439389e+02
3.564511334262442599e+00,3.999224270789782310e+01,3.996905369300873190e+01,-1.775830927627362712e+02,-1.751705667379921749e+02
3.630780547701013994e+00,3.999252305358634629e+01,3.997016921403712786e+01,-1.776273111517462837e+02,-1.752584631489839353e+02
3.698281797802662751e+00,3.999279327596000400e+01,3.997124465675560145e+01,-1.776707281115379544e+02,-1.753447799190098806e+02
3.767037989839089107e+00,3.999305373997182755e+01,3.997228145169097502e+01,-1.777133581764207122e+02,-1.754295447746183356e+02
3.837072454922788811e+00,3.999330479746012657e+01,3.997328097897319310e+01,-1.777552156243189359e+02,-1.755127849987182174e+02
3.908408957924021099e+00,3.999354678761677917e+01,3.997424457006391663e+01,-1.777963144810483129e+02,-1.755945274354700985e+02
3.981071705534973137e+00,3.999378003743896670e+01,3.997517350942909786e+01,-1.778366685245369752e+02,-1.756747984952553736e+02
4.055085354483838778e+00,3.999400486216502060e+01,3.997606903615726281e+01,-1.778762912889909558e+02,-1.757536241597127002e+02
4.130475019901614253e+00,3.999422156569486475e+01,3.997693234552484398e+01,-1.779151960690044518e+02,-1.758310299868337836e+02
4.207266283844441901e+00,3.999443044099556488e+01,3.997776459051026166e+01,-1.779533959236144938e+02,-1.759070411161089567e+02
4.285485203974396029e+00,3.999463177049259599e+01,3.997856688325816066e+01,-1.779909036802996241e+02,-1.759816822737144832e+02
4.365158322401661017e+00,3.999482582644716189e+01,3.997934029649521648e+01,-1.780277319389237505e+02,-1.760549777777346776e+02
4.446312674691088596e+00,3.999501287132022043e+01,3.998008586489904559e+01,-1.780638930756239517e+02,-1.761269515434105131e+02
4.528975799036208727e+00,3.999519315812359821e+01,3.998080458642162682e+01,-1.780993992466436282e+02,-1.761976270884091207e+02
4.613175745603795619e+00,3.999536693075856419e+01,3.998149742356839198e+01,-1.781342623921102017e+02,-1.762670275381073282e+02
4.698941086052156102e+00,3.999553442434250172e+01,3.998216530463471940e+01,-1.781684942397581040e+02,-1.763351756308832137e+02
4.786300923226384896e+00,3.999569586552384948e+01,3.998280912490067607e+01,-1.782021063085976493e+02,-1.764020937234107578e+02
4.875284901033865026e+00,3.999585147278593666e+01,3.998342974778569214e+01,-1.782351099125289409e+02,-1.764678037959518520e+02
4.965923214503362715e+00,3.999600145673995399e+01,3.998402800596421258e+01,-1.782675161639028545e+02,-1.765323274576413723e+02
5.058246620031142449e+00,3.999614602040750100e+01,3.998460470244343412e+01,-1.782993359770275106e+02,-1.765956859517604869e+02
5.152286445817567007e+00,3.999628535949311470e+01,3.998516061160470514e+01,-1.783305800716227338e+02,-1.766579001609945578e+02
5.248074602497728947e+00,3.999641966264698567e+01,3.998569648020926337e+01,-1.783612589762209097e+02,-1.767189906126709218e+02
5.345643593969718665e+00,3.999654911171842286e+01,3.998621302836981073e+01,-1.783913830315160283e+02,-1.767789774839740176e+02
5.445026528424214085e+00,3.999667388200016660e+01,3.998671095048881341e+01,-1.784209623936611138e+02,-1.768378806071339113e+02
5.546257129579109879e+00,3.999679414246406850e+01,3.998719091616469257e+01,-1.784500070375138989e+02,-1.768957194745852917e+02
5.649369748123028501e+00,3.999691005598829463e+01,3.998765357106688612e+01,-1.784785267598322491e+02,-1.769525132440941206e+02
5.754399373371572146e+00,3.999702177957641425e+01,3.998809953778081194e+01,-1.785065311824187404e+02,-1.770082807438494967e+02
5.861381645140290253e+00,3.999712946456868679e+01,3.998852941662377702e+01,-1.785340297552160109e+02,-1.770630404775181148e+02
5.970352865838371770e+00,3.999723325684578867e+01,3.998894378643257852e+01,-1.785610317593525167e+02,-1.771168106292592768e+02
6.081350012787182457e+00,3.999733329702520734e+01,3.998934320532401898e+01,-1.785875463101397997e+02,-1.771696090686983780e+02
6.194410750767818108e+00,3.999742972065065771e+01,3.998972821142900358e+01,-1.786135823600215247e+02,-1.772214533558573066e+02
6.309573444801936937e+00,3.999752265837467746e+01,3.999009932360115727e+01,-1.786391487014751362e+02,-1.772723607460394817e+02
6.426877173170199242e+00,3.999761223613469951e+01,3.999045704210080743e+01,-1.786642539698662233e+02,-1.773223481946688480e+02
6.546361740672747231e+00,3.999769857532285044e+01,3.999080184925524861e+01,-1.786889066462570383e+02,-1.773714323620808102e+02
6.668067692136218305e+00,3.999778179294953873e+01,3.999113421009587199e+01,-1.787131150601684624e+02,-1.774196296182641390e+02
6.792036326171842830e+00,3.999786200180135154e+01,3.999145457297313300e+01,-1.787368873922974615e+02,-1.774669560475529977e+02
6.918309709189361278e+00,3.999793931059316776e+01,3.999176337015000371e+01,-1.787602316771892959e+02,-1.775134274532674681e+02
7.046930689671467185e+00,3.999801382411480688e+01,3.999206101837468452e+01,-1.787831558058661585e+02,-1.775590593623028042e+02
7.177942912713614732e+00,3.999808564337249805e+01,3.999234791943317902e+01,-1.788056675284119876e+02,-1.776038670296653095e+02
7.311390834834172736e+00,3.999815486572521195e+01,3.999262446068257049e+01,-1.788277744565148453e+02,-1.776478654429554922e+02
7.447319739059887311e+00,3.999822158501608982e+01,3.999289101556551174e+01,-1.788494840659665499e+02,-1.776910693267971908e+02
7.585775750291835706e+00,3.999828589169919724e+01,3.999314794410665996e+01,-1.788708036991210406e+02,-1.777334931472123287e+02
7.726805850957020994e+00,3.999834787296164507e+01,3.999339559339159678e+01,-1.788917405673114445e+02,-1.777751511159412416e+02
7.870457896950984633e+00,3.999840761284144008e+01,3.999363429802895098e+01,-1.789123017532267852e+02,-1.778160571947078381e+02
8.016780633876789963e+00,3.999846519234096576e+01,3.999386438059613624e+01,-1.789324942132487593e+02,-1.778562250994300200e+02
8.165823713585922405e+00,3.999852068953648399e+01,3.999408615206939288e+01,-1.789523247797493184e+02,-1.778956683043742260e+02
8.317637711026709013e+00,3.999857417968364359e+01,3.999429991223869507e+01,-1.789718001633493714e+02,-1.779344000462551776e+02
8.472274141405963022e+00,3.999862573531923005e+01,3.999450595010785747e+01,-1.789909269551395710e+02,-1.779724333282799478e+02
8.629785477669701166e+00,3.999867542635919904e+01,3.999470454428060862e+01,-1.790097116288634140e+02,-1.780097809241366065e+02
8.790225168308841930e+00,3.999872332019325682e+01,3.999489596333290109e+01,-1.790281605430634499e+02,-1.780464553819279843e+02
8.953647655495936775e+00,3.999876948177595892e+01,3.999508046617209089e+01,-1.790462799431912231e+02,-1.780824690280496725e+02
9.120108393559096527e+00,3.999881397371459002e+01,3.999525830238331281e+01,-1.790640759636811197e+02,-1.781178339710137948e+02
9.289663867799362151e+00,3.999885685635385357e+01,3.999542971256359891e+01,-1.790815546299892560e+02,-1.781525621052173562e+02
9.462371613657929004e+00,3.999889818785749185e+01,3.999559492864415233e+01,-1.790987218605976068e+02,-1.781866651146567051e+02
9.638290236239704711e+00,3.999893802428701406e+01,3.999575417420108181e+01,-1.791155834689839139e+02,-1.782201544765872256e+02
9.817479430199844259e+00,3.999897641967753970e+01,3.999590766475515125e+01,-1.791321451655580574e+02,-1.782530414651297406e+02
1.000000000000000000e+01,3.999901342611094179e+01,3.999605560806086402e+01,-1.791484125595655144e+02,-1.782853371548229404e+02
1.018591388054116997e+01,3.999904909378631856e+01,3.999619820438519469e+01,-1.791643911609581892e+02,-1.783170524241230908e+02
1.037528415818012739e+01,3.999908347108798523e+01,3.999633564677646547e+01,-1.791800863822334406e+02,-1.783481979588505340e+02
1.056817509213658468e+01,3.999911660465093632e+01,3.999646812132353801e+01,-1.791955035402414751e+02,-1.783787842555844350e+02
1.076465213629835027e+01,3.999914853942401294e+01,3.999659580740587472e+01,-1.792106478579621864e+02,-1.784088216250054018e+02
1.096478196143185180e+01,3.999917931873075361e+01,3.999671887793456193e+01,-1.792255244662511586e+02,-1.784383201951867193e+02
1.116863247780561252e+01,3.999920898432806382e+01,3.999683749958481371e+01,-1.792401384055561664e+02,-1.784672899148349074e+02
1.137627285823431045e+01,3.999923757646278233e+01,3.999695183302014811e+01,-1.792544946276043163e+02,-1.784957405564798307e+02
1.158777356155126270e+01,3.999926513392616556e+01,3.999706203310844899e+01,-1.792685979970601977e+02,-1.785236817196149275e+02
1.180320635651730043e+01,3.999929169410645358e+01,3.999716824913051738e+01,-1.792824532931555268e+02,-1.785511228337881278e+02
1.202264434617413080e+01,3.999931729303951045e+01,3.999727062498092778e+01,-1.792960652112915056e+02,-1.785780731616442552e+02
1.224616199265048877e+01,3.999934196545761722e+01,3.999736929936185703e+01,-1.793094383646129018e+02,-1.786045418019188560e+02
1.247383514242943292e+01,3.999936574483660934e+01,3.999746440596989316e+01,-1.793225772855561786e+02,-1.786305376923846779e+02
1.270574105208542015e+01,3.999938866344110977e+01,3.999755607367619348e+01,-1.793354864273704266e+02,-1.786560696127510255e+02
1.294195841449986339e+01,3.999941075236836951e+01,3.999764442670014830e+01,-1.793481701656128848e+02,-1.786811461875165037e+02
1.318256738556407370e+01,3.999943204159032462e+01,3.999772958477686302e+01,-1.793606327996184007e+02,-1.787057758887761167e+02
1.342764961137864255e+01,3.999945255999424631e+01,3.999781166331862181e+01,-1.793728785539444459e+02,-1.787299670389828066e+02
1.367728825595849429e+01,3.999947233542189906e+01,3.999789077357049649e+01,-1.793849115797909803e+02,-1.787537278136644261e+02
1.393156802945303774e+01,3.999949139470725612e+01,3.999796702276049132e+01,-1.793967359563964408e+02,-1.787770662440965168e+02
1.419057521689092560e+01,3.999950976371287936e+01,3.999804051424420237e+01,-1.794083556924098843e+02,-1.787999902199317717e+02
1.445439770745928065e+01,3.999952746736497744e+01,3.999811134764431131e+01,-1.794197747272399397e+02,-1.788225074917862685e+02
1.472312502432719405e+01,3.999954452968719210e+01,3.999817961898509111e+01,-1.794309969323808787e+02,-1.788446256737836677e+02
1.499684835502373836e+01,3.999956097383316944e+01,3.999824542082203749e+01,-1.794420261127158085e+02,-1.788663522460574882e+02
1.527566058238073232e+01,3.999957682211793042e+01,3.999830884236686046e+01,-1.794528660077984341e+02,-1.788876945572125408e+02
1.555965631605075039e+01,3.999959209604816124e+01,3.999836996960802082e+01,-1.794635202931129072e+02,-1.789086598267454633e+02
1.584893192461114175e+01,3.999960681635135984e+01,3.999842888542686126e+01,-1.794739925813121602e+02,-1.789292551474259767e+02
1.614358556826486790e+01,3.999962100300388101e+01,3.999848566970960206e+01,-1.794842864234357194e+02,-1.789494874876380095e+02
1.644371723214932501e+01,3.999963467525814309e+01,3.999854039945533657e+01,-1.794944053101071120e+02,-1.789693636936828227e+02
1.674942876026438299e+01,3.999964785166861247e+01,3.999859314888006878e+01,-1.795043526727107519e+02,-1.789888904920437938e+02
1.706082389003124433e+01,3.999966055011703503e+01,3.999864398951703492e+01,-1.795141318845495562e+02,-1.790080744916134279e+02
1.737800828749376336e+01,3.999967278783667268e+01,3.999869299031347225e+01,-1.795237462619830353e+02,-1.790269221858837909e+02
1.770108958317421965e+01,3.999968458143565186e+01,3.999874021772380672e+01,-1.795331990655464267e+02,-1.790454399551004201e+02
1.803017740859569784e+01,3.999969594691953034e+01,3.999878573579954377e+01,-1.795424935010512399e+02,-1.790636340683804804e+02
1.836538343348347269e+01,3.999970689971294746e+01,3.999882960627591899e+01,-1.795516327206674987e+02,-1.790815106857957630e+02
1.870682140365801516e+01,3.999971745468059936e+01,3.999887188865537979e+01,-1.795606198239880769e+02,-1.790990758604208963e+02
1.905460717963248385e+01,3.999972762614735444e+01,3.999891264028813254e+01,-1.795694578590756976e+02,-1.791163355403478761e+02
1.940885877592779352e+01,3.999973742791772935e+01,3.999895191644971248e+01,-1.795781498234923390e+02,-1.791332955706666894e+02
1.976969640111861892e+01,3.999974687329456202e+01,3.999898977041580395e+01,-1.795866986653119284e+02,-1.791499616954131398e+02
2.013724249862389470e+01,3.999975597509710923e+01,3.999902625353433905e+01,-1.795951072841168070e+02,-1.791663395594845554e+02
2.051162178825566684e+01,3.999976474567837670e+01,3.999906141529499592e+01,-1.796033785319772846e+02,-1.791824347105231823e+02
2.089296130854040356e+01,3.999977319694193767e+01,3.999909530339620289e+01,-1.796115152144158174e+02,-1.791982526007686829e+02
2.128139045982713284e+01,3.999978134035804089e+01,3.999912796380971258e+01,-1.796195200913555539e+02,-1.792137985888797118e+02
2.167704104819694422e+01,3.999978918697917152e+01,3.999915944084284547e+01,-1.796273958780532780e+02,-1.792290779417253077e+02
2.208004733018899302e+01,3.999979674745505775e+01,3.999918977719849522e+01,-1.796351452460177143e+02,-1.792440958361465277e+02
2.249054605835780407e+01,3.999980403204713753e+01,3.999921901403293134e+01,-1.796427708239130538e+02,-1.792588573606890066e+02
2.290867652767772356e+01,3.999981105064242115e+01,3.999924719101158388e+01,-1.796502751984479573e+02,-1.792733675173066956e+02
2.333458062281001943e+01,3.999981781276697035e+01,3.999927434636271073e+01,-1.796576609152506308e+02,-1.792876312230377209e+02
2.376840286624875986e+01,3.999982432759878037e+01,3.999930051692924593e+01,-1.796649304797302023e+02,-1.793016533116522169e+02
2.421029046736177293e+01,3.999983060398024293e+01,3.999932573821865134e+01,-1.796720863579243428e+02,-1.793154385352732731e+02
2.466039337234338547e+01,3.999983665043015435e+01,3.999935004445104170e+01,-1.796791309773336422e+02,-1.793289915659711937e+02
2.511886431509579509e+01,3.999984247515526192e+01,3.999937346860556886e+01,-1.796860667277436221e+02,-1.793423169973315225e+02
2.558585886905645168e+01,3.999984808606139808e+01,3.999939604246509361e+01,-1.796928959620329920e+02,-1.793554193459972907e+02
2.606153549998894903e+01,3.999985349076420960e+01,3.999941779665921615e+01,-1.796996209969705944e+02,-1.793683030531861675e+02
2.654605561975538564e+01,3.999985869659951021e+01,3.999943876070584281e+01,-1.797062441139995599e+02,-1.793809724861828272e+02
2.703958364108843426e+01,3.999986371063318558e+01,3.999945896305115411e+01,-1.797127675600096097e+02,-1.793934319398069306e+02
2.754228703338166184e+01,3.999986853967084244e+01,3.999947843110818013e+01,-1.797191935480980192e+02,-1.794056856378573741e+02
2.805433637951713166e+01,3.999987319026699595e+01,3.999949719129390502e+01,-1.797255242583189272e+02,-1.794177377345331195e+02
2.857590543374946179e+01,3.999987766873398698e+01,3.999951526906514943e+01,-1.797317618384216189e+02,-1.794295923158309733e+02
2.910717118066605025e+01,3.999988198115053706e+01,3.999953268895301761e+01,-1.797379084045781497e+02,-1.794412534009209992e+02
2.964831389524342242e+01,3.999988613337000487e+01,3.999954947459616506e+01,-1.797439660420996859e+02,-1.794527249434998453e+02
3.019951720402016093e+01,3.999989013102833013e+01,3.999956564877287235e+01,-1.797499368061432108e+02,-1.794640108331221597e+02
3.076096814740708041e+01,3.999989397955167192e+01,3.999958123343188277e+01,-1.797558227224076006e+02,-1.794751148965112293e+02
3.133285724315585696e+01,3.999989768416376279e+01,3.999959624972219530e+01,-1.797616257878198951e+02,-1.794860408988485005e+02
3.191537855100761334e+01,3.999990124989304974e+01,3.999961071802172796e+01,-1.797673479712118763e+02,-1.794967925450425810e+02
3.250872973854343684e+01,3.999990468157944434e+01,3.999962465796492950e+01,-1.797729912139870123e+02,-1.795073734809786288e+02
3.311311214825911264e+01,3.999990798388094504e+01,3.999963808846943181e+01,-1.797785574307785907e+02,-1.795177872947478761e+02
3.372873086588688807e+01,3.999991116127993251e+01,3.999965102776170056e+01,-1.797840485100981596e+02,-1.795280375178579675e+02
3.435579478998746339e+01,3.999991421808927328e+01,3.999966349340170524e+01,-1.797894663149756980e+02,-1.795381276264245400e+02
3.499451670283573179e+01,3.999991715845813900e+01,3.999967550230680047e+01,-1.797948126835911182e+02,-1.795480610423443579e+02
3.564511334262442688e+01,3.999991998637766955e+01,3.999968707077463392e+01,-1.798000894298968717e+02,-1.795578411344504275e+02
3.630780547701014171e+01,3.999992270568639441e+01,3.999969821450522289e+01,-1.798052983442332220e+02,-1.795674712196493488e+02
3.698281797802662396e+01,3.999992532007539126e+01,3.999970894862230608e+01,-1.798104411939345937e+02,-1.795769545640413867e+02
3.767037989839089107e+01,3.999992783309335920e+01,3.999971928769381435e+01,-1.798155197239291283e+02,-1.795862943840236596e+02
3.837072454922788012e+01,3.999993024815138654e+01,3.999972924575163091e+01,-1.798205356573298275e+02,-1.795954938473766731e+02
3.908408957924021365e+01,3.999993256852761903e+01,3.999973883631064808e+01,-1.798254906960188464e+02,-1.796045560743346243e+02
3.981071705534973404e+01,3.999993479737166524e+01,3.999974807238707086e+01,-1.798303865212242272e+02,-1.796134841386398193e+02
4.055085354483838955e+01,3.999993693770891667e+01,3.999975696651609525e+01,-1.798352247940902657e+02,-1.796222810685816000e+02
4.130475019901614786e+01,3.999993899244462625e+01,3.999976553076889729e+01,-1.798400071562403468e+02,-1.796309498480199238e+02
4.207266283844441546e+01,3.999994096436783764e+01,3.999977377676899692e+01,-1.798447352303336686e+02,-1.796394934173943341e+02
4.285485203974396740e+01,3.999994285615522216e+01,3.999978171570808883e+01,-1.798494106206153447e+02,-1.796479146747181233e+02
4.365158322401661195e+01,3.999994467037464574e+01,3.999978935836112015e+01,-1.798540349134604810e+02,-1.796562164765584555e+02
4.446312674691088773e+01,3.999994640948872870e+01,3.999979671510101298e+01,-1.798586096779120567e+02,-1.796644016390025342e+02
4.528975799036209082e+01,3.999994807585810008e+01,3.999980379591264779e+01,-1.798631364662128078e+02,-1.796724729386102126e+02
4.613175745603795264e+01,3.999994967174469451e+01,3.999981061040649166e+01,-1.798676168143318250e+02,-1.796804331133533310e+02
4.698941086052155924e+01,3.999995119931474363e+01,3.999981716783155150e+01,-1.798720522424852106e+02,-1.796882848635422931e+02
4.786300923226384896e+01,3.999995266064176036e+01,3.999982347708800745e+01,-1.798764442556517622e+02,-1.796960308527395682e+02
4.875284901033865026e+01,3.999995405770934553e+01,3.999982954673922819e+01,-1.798807943440833981e+02,-1.797036737086614266e+02
4.965923214503362715e+01,3.999995539241387377e+01,3.999983538502340963e+01,-1.798851039838102395e+02,-1.797112160240671415e+02
5.058246620031141561e+01,3.999995666656705851e+01,3.999984099986473751e+01,-1.798893746371416569e+02,-1.797186603576367645e+02
5.152286445817566829e+01,3.999995788189843893e+01,3.999984639888418769e+01,-1.798936077531618025e+02,-1.797260092348373064e+02
5.248074602497728591e+01,3.999995904005771052e+01,3.999985158940978636e+01,-1.798978047682213912e+02,-1.797332651487778321e+02
5.345643593969719376e+01,3.999996014261696331e+01,3.999985657848664999e+01,-1.799019671064246495e+02,-1.797404305610535573e+02
5.445026528424213552e+01,3.999996119107279213e+01,3.999986137288644272e+01,-1.799060961801123995e+02,-1.797475079025794571e+02
5.546257129579110057e+01,3.999996218684839278e+01,3.999986597911664887e+01,-1.799101933903412203e+02,-1.797544995744136429e+02
5.649369748123028501e+01,3.999996313129542358e+01,3.999987040342935529e+01,-1.799142601273584603e+02,-1.797614079485704224e+02
5.754399373371572324e+01,3.999996402569588838e+01,3.999987465182975654e+01,-1.799182977710739522e+02,-1.797682353688237811e+02
5.861381645140290431e+01,3.999996487126384892e+01,3.999987873008428352e+01,-1.799223076915279478e+02,-1.797749841515013429e+02
5.970352865838371770e+01,3.999996566914708040e+01,3.999988264372844782e+01,-1.799262912493560123e+02,-1.797816565862690936e+02
6.081350012787182635e+01,3.999996642042864181e+01,3.999988639807434510e+01,-1.799302497962504219e+02,-1.797882549369070375e+02
6.194410750767818286e+01,3.999996712612831828e+01,3.999988999821788127e+01,-1.799341846754187202e+02,-1.797947814420761858e+02
6.309573444801936404e+01,3.999996778720404222e+01,3.999989344904563637e+01,-1.799380972220392891e+02,-1.798012383160771606e+02
6.426877173170200308e+01,3.999996840455316516e+01,3.999989675524155786e+01,-1.799419887637143631e+02,-1.798076277496004423e+02
6.546361740672753626e+01,3.999996897901367277e+01,3.999989992129328442e+01,-1.799458606209204277e+02,-1.798139519104688304e+02
6.668067692136224878e+01,3.999996951136535017e+01,3.999990295149822828e+01,-1.799497141074559181e+02,-1.798202129443719741e+02
6.792036326171850646e+01,3.999997000233081224e+01,3.999990584996944420e+01,-1.799535505308872985e+02,-1.798264129755937404e+02
6.918309709189362877e+01,3.999997045257650541e+01,3.999990862064115760e+01,-1.799573711929922126e+02,-1.798325541077320224e+02
7.046930689671467007e+01,3.999997086271360303e+01,3.999991126727414326e+01,-1.799611773902012999e+02,-1.798386384244119256e+02
7.177942912713615442e+01,3.999997123329882243e+01,3.999991379346083420e+01,-1.799649704140380493e+02,-1.798446679899918195e+02
7.311390834834172381e+01,3.999997156483519234e+01,3.999991620263016756e+01,-1.799687515515569203e+02,-1.798506448502632793e+02
7.447319739059888377e+01,3.999997185777276343e+01,3.999991849805223865e+01,-1.799725220857797012e+02,-1.798565710331445757e+02
7.585775750291836061e+01,3.999997211250916251e+01,3.999992068284278446e+01,-1.799762832961312427e+02,-1.798624485493680538e+02
7.726805850957020994e+01,3.999997232939017522e+01,3.999992275996734747e+01,-1.799800364588731725e+02,-1.798682793931618846e+02
7.870457896950985344e+01,3.999997250871019361e+01,3.999992473224536127e+01,-1.799837828475367871e+02,-1.798740655429262461e+02
8.016780633876788897e+01,3.999997265071263541e+01,3.999992660235390929e+01,-1.799875237333554594e+02,-1.798798089619038478e+02
8.165823713585920984e+01,3.999997275559025667e+01,3.999992837283144098e+01,-1.799912603856955400e+02,-1.798855115988457953e+02
8.317637711026708303e+01,3.999997282348540750e+01,3.999993004608113978e+01,-1.799949940724872306e+02,-1.798911753886723091e+02
8.472274141405962666e+01,3.999997285449026663e+01,3.999993162437423422e+01,-1.799987260606547181e+02,-1.798968022531286977e+02
8.629785477669700811e+01,3.999997284864691238e+01,3.999993310985306039e+01,-1.800024576165457972e+02,-1.799023941014371530e+02
8.790225168308842285e+01,3.999997280594741511e+01,3.999993450453396804e+01,-1.800061900063616633e+02,-1.799079528309439979e+02
8.953647655495937840e+01,3.999997272633380874e+01,3.999993581031007039e+01,-1.800099244965864784e+02,-1.799134803277632670e+02
9.120108393559097237e+01,3.999997260969803392e+01,3.999993702895379499e+01,-1.800136623544168799e+02,-1.799189784674160251e+02
9.289663867799363572e+01,3.999997245588175332e+01,3.999993816211931374e+01,-1.800174048481920011e+02,-1.799244491154667571e+02
9.462371613657930425e+01,3.999997226467618816e+01,3.999993921134474562e+01,-1.800211532478238894e+02,-1.799298941281557518e+02
9.638290236239704711e+01,3.999997203582179139e+01,3.999994017805430957e+01,-1.800249088252279535e+02,-1.799353153530286704e+02
9.817479430199843193e+01,3.999997176900790663e+01,3.999994106356019330e+01,-1.800286728547548023e+02,-1.799407146295632174e+02
1.000000000000000000e+02,3.999997146387235603e+01,3.999994186906435800e+01,-1.800324466136224544e+02,-1.799460937897929114e+02
1.018591388054116891e+02,3.999997112000095711e+01,3.999994259566020105e+01,-1.800362313823496265e+02,-1.799514546589283839e+02
1.037528415818012633e+02,3.999997073692692595e+01,3.999994324433398418e+01,-1.800400284451901314e+02,-1.799567990559765178e+02
1.056817509213658610e+02,3.999997031413026605e+01,3.999994381596620485e+01,-1.800438390905685822e+02,-1.799621287943573122e+02
1.076465213629834778e+02,3.999996985103707914e+01,3.999994431133278994e+01,-1.800476646115175470e+02,-1.799674456825188997e+02
1.096478196143185215e+02,3.999996934701876228e+01,3.999994473110614734e+01,-1.800515063061159822e+02,-1.799727515245509153e+02
1.116863247780561181e+02,3.999996880139114097e+01,3.999994507585606129e+01,-1.800553654779299109e+02,-1.799780481207965295e+02
1.137627285823431009e+02,3.999996821341358810e+01,3.999994534605050944e+01,-1.800592434364543237e+02,-1.799833372684628046e+02
1.158777356155126341e+02,3.999996758228796523e+01,3.999994554205623842e+01,-1.800631414975576376e+02,-1.799886207622305676e+02
1.180320635651729759e+02,3.999996690715757808e+01,3.999994566413930386e+01,-1.800670609839279166e+02,-1.799939003948628908e+02
1.202264434617412974e+02,3.999996618710601126e+01,3.999994571246542563e+01,-1.800710032255217641e+02,-1.799991779578132025e+02
1.224616199265048948e+02,3.999996542115583509e+01,3.999994568710020104e+01,-1.800749695600151767e+02,-1.800044552418329431e+02
1.247383514242943221e+02,3.999996460826737632e+01,3.999994558800919009e+01,-1.800789613332576096e+02,-1.800097340375791362e+02
1.270574105208541908e+02,3.999996374733719762e+01,3.999994541505789414e+01,-1.800829798997283149e+02,-1.800150161362212771e+02
1.294195841449986233e+02,3.999996283719666224e+01,3.999994516801155697e+01,-1.800870266229958645e+02,-1.800203033300493018e+02
1.318256738556407299e+02,3.999996187661034242e+01,3.999994484653483084e+01,-1.800911028761807415e+02,-1.800255974130812433e+02
1.342764961137864077e+02,3.999996086427434960e+01,3.999994445019135014e+01,-1.800952100424208879e+02,-1.800309001816718251e+02
1.367728825595849571e+02,3.999995979881452257e+01,3.999994397844312743e+01,-1.800993495153411459e+02,-1.800362134351217378e+02
1.393156802945303525e+02,3.999995867878460132e+01,3.999994343064982161e+01,-1.801035226995257688e+02,-1.800415389762878249e+02
1.419057521689092596e+02,3.999995750266426597e+01,3.999994280606784258e+01,-1.801077310109949394e+02,-1.800468786121946323e+02
1.445439770745927888e+02,3.999995626885704070e+01,3.999994210384942050e+01,-1.801119758776848698e+02,-1.800522341546472944e+02
1.472312502432719441e+02,3.999995497568816916e+01,3.999994132304135519e+01,-1.801162587399324480e+02,-1.800576074208460398e+02
1.499684835502374085e+02,3.999995362140228394e+01,3.999994046258380109e+01,-1.801205810509633238e+02,-1.800630002340024021e+02
1.527566058238073197e+02,3.999995220416111152e+01,3.999993952130877517e+01,-1.801249442773852252e+02,-1.800684144239577620e+02
1.555965631605075146e+02,3.999995072204087165e+01,3.999993849793861500e+01,-1.801293498996849962e+02,-1.800738518278037930e+02
1.584893192461114211e+02,3.999994917302976205e+01,3.999993739108421664e+01,-1.801337994127308946e+02,-1.800793142905054935e+02
1.614358556826487074e+02,3.999994755502514465e+01,3.999993619924315169e+01,-1.801382943262794640e+02,-1.800848036655269766e+02
1.644371723214932786e+02,3.999994586583077449e+01,3.999993492079763513e+01,-1.801428361654876369e+02,-1.800903218154600722e+02
1.674942876026438228e+02,3.999994410315375148e+01,3.999993355401234396e+01,-1.801474264714297533e+02,-1.800958706126558582e+02
1.706082389003124433e+02,3.999994226460143665e+01,3.999993209703202979e+01,-1.801520668016203786e+02,-1.801014519398596576e+02
1.737800828749376478e+02,3.999994034767820494e+01,3.999993054787901769e+01,-1.801567587305422933e+02,-1.801070676908495898e+02
1.770108958317422037e+02,3.999993834978204887e+01,3.999992890445052751e+01,-1.801615038501803951e+02,-1.801127197710786731e+02
1.803017740859569926e+02,3.999993626820107551e+01,3.999992716451581742e+01,-1.801663037705615977e+02,-1.801184100983209646e+02
1.836538343348347553e+02,3.999993410010976902e+01,3.999992532571314285e+01,-1.801711601203006126e+02,-1.801241406033218482e+02
1.870682140365801729e+02,3.999993184256521772e+01,3.999992338554656612e+01,-1.801760745471522966e+02,-1.801299132304528428e+02
1.905460717963248385e+02,3.999992949250308527e+01,3.999992134138258137e+01,-1.801810487185701106e+02,-1.801357299383706163e+02
1.940885877592779707e+02,3.999992704673345401e+01,3.999991919044649080e+01,-1.801860843222715971e+02,-1.801415927006813433e+02
1.976969640111861963e+02,3.999992450193650484e+01,3.999991692981869562e+01,-1.801911830668105097e+02,-1.801475035066096950e+02
2.013724249862389399e+02,3.999992185465800532e+01,3.999991455643070992e+01,-1.801963466821559336e+02,-1.801534643616733717e+02
2.051162178825566684e+02,3.999991910130462713e+01,3.999991206706098268e+01,-1.802015769202788817e+02,-1.801594772883628650e+02
2.089296130854040712e+02,3.999991623813907182e+01,3.999990945833055633e+01,-1.802068755557459951e+02,-1.801655443268272165e+02
2.128139045982713355e+02,3.999991326127497615e+01,3.999990672669844827e+01,-1.802122443863212311e+02,-1.801716675355656037e+02
2.167704104819696340e+02,3.999991016667167543e+01,3.999990386845686885e+01,-1.802176852335749686e+02,-1.801778489921251492e+02
2.208004733018901504e+02,3.999990695012867548e+01,3.999990087972619079e+01,-1.802231999435016974e+02,-1.801840907938050691e+02
2.249054605835782752e+02,3.999990360728000383e+01,3.999989775644965562e+01,-1.802287903871453523e+02,-1.801903950583676135e+02
2.290867652767774700e+02,3.999990013358823404e+01,3.999989449438790245e+01,-1.802344584612336007e+02,-1.801967639247557997e+02
2.333458062281004572e+02,3.999989652433836795e+01,3.999989108911320557e+01,-1.802402060888204289e+02,-1.802031995538184503e+02
2.376840286624878331e+02,3.999989277463140525e+01,3.999988753600344182e+01,-1.802460352199379940e+02,-1.802097041290423647e+02
2.421029046736180135e+02,3.999988887937771409e+01,3.999988383023585925e+01,-1.802519478322571729e+02,-1.802162798572922782e+02
2.466039337234341247e+02,3.999988483329013178e+01,3.999987996678049740e+01,-1.802579459317576038e+02,-1.802229289695588363e+02
2.511886431509582280e+02,3.999988063087675982e+01,3.999987594039337324e+01,-1.802640315534075626e+02,-1.802296537217143566e+02
2.558585886905647726e+02,3.999987626643354588e+01,3.999987174560936865e+01,-1.802702067618529895e+02,-1.802364563952772016e+02
2.606153549998897461e+02,3.999987173403651752e+01,3.999986737673482651e+01,-1.802764736521171756e+02,-1.802433392981849067e+02
2.654605561975541832e+02,3.999986702753374601e+01,3.999986282783979874e+01,-1.802828343503102815e+02,-1.802503047655757769e+02
2.703958364108846126e+02,3.999986214053703293e+01,3.999985809274998871e+01,-1.802892910143494021e+02,-1.802573551605801754e+02
2.754228703338168884e+02,3.999985706641318473e+01,3.999985316503844501e+01,-1.802958458346894304e+02,-1.802644928751208511e+02
2.805433637951716150e+02,3.999985179827505988e+01,3.999984803801675071e+01,-1.803025010350650064e+02,-1.802717203307230136e+02
2.857590543374949448e+02,3.999984632897219683e+01,3.999984270472600656e+01,-1.803092588732431523e+02,-1.802790399793346126e+02
2.910717118066608009e+02,3.999984065108112929e+01,3.999983715792737371e+01,-1.803161216417880723e+02,-1.802864543041565071e+02
2.964831389524345582e+02,3.999983475689528944e+01,3.999983139009223265e+01,-1.803230916688370939e+02,-1.802939658204834075e+02
3.019951720402019077e+02,3.999982863841457004e+01,3.999982539339199406e+01,-1.803301713188890574e+02,-1.803015770765554464e+02
3.076096814740711238e+02,3.999982228733448153e+01,3.999981915968746904e+01,-1.803373629936043017e+02,-1.803092906544209768e+02
3.133285724315588823e+02,3.999981569503484735e+01,3.999981268051781313e+01,-1.803446691326178666e+02,-1.803171091708105109e+02
3.191537855100764887e+02,3.999980885256814389e+01,3.999980594708907944e+01,-1.803520922143650580e+02,-1.803250352780226251e+02
3.250872973854347379e+02,3.999980175064734311e+01,3.999979895026223176e+01,-1.803596347569200020e+02,-1.803330716648214320e+02
3.311311214825913680e+02,3.999979437963331463e+01,3.999979168054081669e+01,-1.803672993188476710e+02,-1.803412210573465870e+02
3.372873086588692217e+02,3.999978672952175174e+01,3.999978412805801753e+01,-1.803750885000696087e+02,-1.803494862200357431e+02
3.435579478998749892e+02,3.999977878992958580e+01,3.999977628256328899e+01,-1.803830049427432130e+02,-1.803578699565597958e+02
3.499451670283576732e+02,3.999977055008092464e+01,3.999976813340847315e+01,-1.803910513321556266e+02,-1.803663751107714006e+02
3.564511334262446667e+02,3.999976199879241534e+01,3.999975966953332573e+01,-1.803992303976316123e+02,-1.803750045676669060e+02
3.630780547701017440e+02,3.999975312445807418e+01,3.999975087945052366e+01,-1.804075449134565474e+02,-1.803837612543618718e+02
3.698281797802666233e+02,3.999974391503354809e+01,3.999974175123008280e+01,-1.804159976998144828e+02,-1.803926481410812528e+02
3.767037989839092802e+02,3.999973435801977928e+01,3.999973227248315766e+01,-1.804245916237413496e+02,-1.804016682421632538e+02
3.837072454922792417e+02,3.999972444044603037e+01,3.999972243034527963e+01,-1.804333296000940550e+02,-1.804108246170786458e+02
3.908408957924024776e+02,3.999971414885231979e+01,3.999971221145884925e+01,-1.804422145925354926e+02,-1.804201203714647193e+02
3.981071705534977241e+02,3.999970346927113241e+01,3.999970160195505287e+01,-1.804512496145359819e+02,-1.804295586581748978e+02
4.055085354483843503e+02,3.999969238720851195e+01,3.999969058743505457e+01,-1.804604377303912486e+02,-1.804391426783440124e+02
4.130475019901610381e+02,3.999968088762435769e+01,3.999967915295044207e+01,-1.804697820562574009e+02,-1.804488756824698044e+02
4.207266283844437567e+02,3.999966895491208163e+01,3.999966728298299046e+01,-1.804792857612034425e+02,-1.804587609715108272e+02
4.285485203974392334e+02,3.999965657287736320e+01,3.999965496142355903e+01,-1.804889520682811508e+02,-1.804688018980012316e+02
4.365158322401656505e+02,3.999964372471627172e+01,3.999964217155031321e+01,-1.804987842556130317e+02,-1.804790018671827454e+02
4.446312674691083657e+02,3.999963039299242240e+01,3.999962889600597293e+01,-1.805087856574990326e+02,-1.804893643381541892e+02
4.528975799036204535e+02,3.999961655961333662e+01,3.999961511677432924e+01,-1.805189596655412743e+02,-1.804998928250388417e+02
4.613175745603790574e+02,3.999960220580593528e+01,3.999960081515581578e+01,-1.805293097297885367e+02,-1.805105908981704204e+02
4.698941086052150808e+02,3.999958731209105167e+01,3.999958597174209274e+01,-1.805398393598997870e+02,-1.805214621852973949e+02
4.786300923226380064e+02,3.999957185825702766e+01,3.999957056638979225e+01,-1.805505521263277160e+02,-1.805325103728066836e+02
4.875284901033859910e+02,3.999955582333232229e+01,3.999955457819316962e+01,-1.805614516615224261e+02,-1.805437392069664497e+02
4.965923214503357599e+02,3.999953918555704746e+01,3.999953798545577399e+01,-1.805725416611556682e+02,-1.805551524951892759e+02
5.058246620031137581e+02,3.999952192235348747e+01,3.999952076566104608e+01,-1.805838258853662808e+02,-1.805667541073151767e+02
5.152286445817561571e+02,3.999950401029550306e+01,3.999950289544175064e+01,-1.805953081600264909e+02,-1.805785479769155586e+02
5.248074602497722481e+02,3.999948542507674176e+01,3.999948435054832885e+01,-1.806069923780307249e+02,-1.805905381026180976e+02
5.345643593969713265e+02,3.999946614147769708e+01,3.999946510581602155e+01,-1.806188825006059915e+02,-1.806027285494533317e+02
5.445026528424208436e+02,3.999944613333153143e+01,3.999944513513074185e+01,-1.806309825586450870e+02,-1.806151234502229102e+02
5.546257129579104230e+02,3.999942537348861293e+01,3.999942441139371851e+01,-1.806432966540628797e+02,-1.806277270068906091e+02
5.649369748123021964e+02,3.999940383377969511e+01,3.999940290648470409e+01,-1.806558289611759562e+02,-1.806405434919957713e+02
5.754399373371566071e+02,3.999938148497775359e+01,3.999938059122391820e+01,-1.806685837281062277e+02,-1.806535772500903363e+02
5.861381645140285173e+02,3.999935829675837340e+01,3.999935743533248456e+01,-1.806815652782085238e+02,-1.806668326991991762e+02
5.970352865838366370e+02,3.999933423765866536e+01,3.999933340739137577e+01,-1.806947780115235673e+02,-1.806803143323050449e+02
6.081350012787175956e+02,3.999930927503459088e+01,3.999930847479888030e+01,-1.807082264062555055e+02,-1.806940267188578275e+02
6.194410750767812033e+02,3.999928337501679465e+01,3.999928260372638533e+01,-1.807219150202753326e+02,-1.807079745063088865e+02
6.309573444801930009e+02,3.999925650246466091e+01,3.999925575907258235e+01,-1.807358484926508027e+02,-1.807221624216712144e+02
6.426877173170194055e+02,3.999922862091872844e+01,3.999922790441586073e+01,-1.807500315452021482e+02,-1.807365952731052232e+02
6.546361740672747374e+02,3.999919969255130070e+01,3.999919900196503164e+01,-1.807644689840856245e+02,-1.807512779515313639e+02
6.668067692136219193e+02,3.999916967811518020e+01,3.999916901250809076e+01,-1.807791657014040823e+02,-1.807662154322697177e+02
6.792036326171842120e+02,3.999913853689054832e+01,3.999913789535911235e+01,-1.807941266768458775e+02,-1.807814127767068442e+02
6.918309709189362593e+02,3.999910622662977744e+01,3.999910560830316086e+01,-1.808093569793520317e+02,-1.807968751339909090e+02
7.046930689671467007e+02,3.999907270350024646e+01,3.999907210753910647e+01,-1.808248617688126387e+02,-1.808126077427551763e+02
7.177942912713615442e+02,3.999903792202496788e+01,3.999903734762031604e+01,-1.808406462977925742e+02,-1.808286159328704912e+02
7.311390834834173802e+02,3.999900183502100504e+01,3.999900128139312727e+01,-1.808567159132874451e+02,-1.808449051272274630e+02
7.447319739059888661e+02,3.999896439353560140e+01,3.999896385993298509e+01,-1.808730760585098949e+02,-1.808614808435484633e+02
7.585775750291835493e+02,3.999892554677992962e+01,3.999892503247824038e+01,-1.808897322747070007e+02,-1.808783486962304323e+02
7.726805850957022130e+02,3.999888524206030382e+01,3.999888474636140501e+01,-1.809066902030094752e+02,-1.808955143982186371e+02
7.870457896950985059e+02,3.999884342470687670e+01,3.999884294693789144e+01,-1.809239555863125304e+02,-1.809129837629123188e+02
8.016780633876788897e+02,3.999880003799966488e+01,3.999879957751205239e+01,-1.809415342711899086e+02,-1.809307627061022004e+02
8.165823713585922405e+02,3.999875502309178898e+01,3.999875457926045641e+01,-1.809594322098406849e+02,-1.809488572479412198e+02
8.317637711026708303e+02,3.999870831892983603e+01,3.999870789115231418e+01,-1.809776554620702882e+02,-1.809672735149480900e+02
8.472274141405963519e+02,3.999865986217128722e+01,3.999865944986689215e+01,-1.809962101973051176e+02,-1.809860177420451350e+02
8.629785477669702232e+02,3.999860958709882652e+01,3.999860918970788504e+01,-1.810151026966428844e+02,-1.810050962746303185e+02
8.790225168308842285e+02,3.999855742553145177e+01,3.999855704251452693e+01,-1.810343393549375435e+02,-1.810245155706844571e+02
8.953647655495936988e+02,3.999850330673228882e+01,3.999850293756946229e+01,-1.810539266829209737e+02,-1.810442822029138767e+02
9.120108393559096385e+02,3.999844715731291700e+01,3.999844680150307141e+01,-1.810738713093604701e+02,-1.810644028609293628e+02
9.289663867799363288e+02,3.999838890113419154e+01,3.999838855819433547e+01,-1.810941799832540084e+02,-1.810848843534618027e+02
9.462371613657928719e+02,3.999832845920330016e+01,3.999832812866790732e+01,-1.811148595760629689e+02,-1.811057336106150899e+02
9.638290236239706701e+02,3.999826574956698977e+01,3.999826543098738796e+01,-1.811359170839829176e+02,-1.811269576861572261e+02
9.817479430199844046e+02,3.999820068720087818e+01,3.999820038014460977e+01,-1.811573596302538363e+02,-1.811485637598495941e+02
9.999999999999998863e+02,3.999813318389451666e+01,3.999813288794477018e+01,-1.811791944675092338e+02,-1.811705591398156230e+02
1.018591388054117033e+03,3.999806314813228170e+01,3.999806286288732338e+01,-1.812014289801657867e+02,-1.811929512649490164e+02
1.037528415818012718e+03,3.999799048496975473e+01,3.999799021004238853e+01,-1.812240706868532811e+02,-1.812157477073623681e+02
1.056817509213658468e+03,3.999791509590552607e+01,3.999791483092255362e+01,-1.812471272428861937e+02,-1.812389561748766482e+02
1.076465213629835034e+03,3.999783687874821680e+01,3.999783662334993295e+01,-1.812706064427767103e+02,-1.812625845135522695e+02
1.096478196143185187e+03,3.999775572747852692e+01,3.999775548131825076e+01,-1.812945162227903779e+02,-1.812866407102621906e+02
1.116863247780561096e+03,3.999767153210619597e+01,3.999767129484977346e+01,-1.813188646635450425e+02,-1.813111328953079351e+02
1.137627285823431066e+03,3.999758417852157777e+01,3.999758394984694831e+01,-1.813436599926529311e+02,-1.813360693450785845e+02
1.158777356155126199e+03,3.999749354834172976e+01,3.999749332793849277e+01,-1.813689105874073846e+02,-1.813614584847540527e+02
1.180320635651729845e+03,3.999739951875079669e+01,3.999739930631975682e+01,-1.813946249775142405e+02,-1.813873088910527258e+02
1.202264434617413144e+03,3.999730196233439017e+01,3.999730175758718076e+01,-1.814208118478686345e+02,-1.814136292950242080e+02
1.224616199265048863e+03,3.999720074690784344e+01,3.999720054956654991e+01,-1.814474800413778439e+02,-1.814404285848878260e+02
1.247383514242943193e+03,3.999709573533816354e+01,3.999709554513489707e+01,-1.814746385618305737e+02,-1.814677158089173759e+02
1.270574105208541823e+03,3.999698678535921914e+01,3.999698660203578982e+01,-1.815022965768138192e+02,-1.814955001783728505e+02
1.294195841449986347e+03,3.999687374938016404e+01,3.999687357268771848e+01,-1.815304634206768810e+02,-1.815237910704796036e+02
1.318256738556407527e+03,3.999675647428675518e+01,3.999675630398544257e+01,-1.815591485975440378e+02,-1.815525980314552612e+02
1.342764961137864248e+03,3.999663480123524550e+01,3.999663463709389788e+01,-1.815883617843761044e+02,-1.815819307795857469e+02
1.367728825595849457e+03,3.999650856543866695e+01,3.999650840723447942e+01,-1.816181128340811313e+02,-1.816117992083499360e+02
1.393156802945303525e+03,3.999637759594519082e+01,3.999637744346340185e+01,-1.816484117786752392e+02,-1.816422133895942466e+02
1.419057521689092709e+03,3.999624171540826012e+01,3.999624156844188860e+01,-1.816792688324936762e+02,-1.816731835767573955e+02
1.445439770745927945e+03,3.999610073984822378e+01,3.999610059819776353e+01,-1.817106943954532596e+02,-1.817047202081457442e+02
1.472312502432719384e+03,3.999595447840512463e+01,3.999595434187830278e+01,-1.817426990563656943e+02,-1.817368339102599180e+02
1.499684835502373971e+03,3.999580273308237821e+01,3.999580260149386390e+01,-1.817752935963032428e+02,-1.817695355011732943e+02
1.527566058238073538e+03,3.999564529848095162e+01,3.999564517165212152e+01,-1.818084889920165779e+02,-1.818028359939621907e+02
1.555965631605075032e+03,3.999548196152370139e+01,3.999548183928239098e+01,-1.818422964194054430e+02,-1.818367466001891444e+02
1.584893192461113813e+03,3.999531250116956471e+01,3.999531238334984806e+01,-1.818767272570427735e+02,-1.818712787334387428e+02
1.614358556826486847e+03,3.999513668811718503e+01,3.999513657455911897e+01,-1.819117930897519670e+02,-1.819064440129071158e+02
1.644371723214932672e+03,3.999495428449759515e+01,3.999495417504702743e+01,-1.819475057122385806e+02,-1.819422542670451719e+02
1.674942876026437943e+03,3.999476504355557438e+01,3.999476493806395183e+01,-1.819838771327760014e+02,-1.819787215372558933e+02
1.706082389003124263e+03,3.999456870931933139e+01,3.999456860764343702e+01,-1.820209195769461132e+02,-1.820158580816457459e+02
1.737800828749376251e+03,3.999436501625786633e+01,3.999436491825969142e+01,-1.820586454914343051e+02,-1.820536763788312555e+02
1.770108958317422321e+03,3.999415368892593392e+01,3.999415359447245066e+01,-1.820970675478799876e+02,-1.820921891318002395e+02
1.803017740859569813e+03,3.999393444159579047e+01,3.999393435055878143e+01,-1.821361986467822476e+02,-1.821314092718278346e+02
1.836538343348347325e+03,3.999370697787551876e+01,3.999370689013139923e+01,-1.821760519214609815e+02,-1.821713499624483461e+02
1.870682140365801615e+03,3.999347099031325570e+01,3.999347090574293162e+01,-1.822166407420733947e+02,-1.822120246034819502e+02
1.905460717963248271e+03,3.999322615998703156e+01,3.999322607847570055e+01,-1.822579787196862640e+02,-1.822534468351169608e+02
1.940885877592779025e+03,3.999297215607946043e+01,3.999297207751646965e+01,-1.823000797104037645e+02,-1.822956305420474905e+02
1.976969640111861963e+03,3.999270863543692656e+01,3.999270855971563776e+01,-1.823429578195505485e+02,-1.823385898576663919e+02
2.013724249862389570e+03,3.999243524211264855e+01,3.999243516913026752e+01,-1.823866274059104455e+02,-1.823823391683133934e+02
2.051162178825566571e+03,3.999215160689302451e+01,3.999215153655049448e+01,-1.824311030860203289e+02,-1.824268931175782313e+02
2.089296130854040712e+03,3.999185734680678195e+01,3.999185727900859888e+01,-1.824763997385186656e+02,-1.824722666106585791e+02
2.128139045982713469e+03,3.999155206461604450e+01,3.999155199927020021e+01,-1.825225325085488350e+02,-1.825184748187722050e+02
2.167704104819696113e+03,3.999123534828913762e+01,3.999123528530691374e+01,-1.825695168122165626e+02,-1.825655331836232449e+02
2.208004733018901334e+03,3.999090677045395381e+01,3.999090670974985784e+01,-1.826173683411008426e+02,-1.826134574219219928e+02
2.249054605835782695e+03,3.999056588783167143e+01,3.999056582932330173e+01,-1.826661030668180388e+02,-1.826622635299573858e+02
2.290867652767774871e+03,3.999021224064977531e+01,3.999021218425771451e+01,-1.827157372456381665e+02,-1.827119677882216138e+02
2.333458062281004459e+03,3.998984535203393875e+01,3.998984529768162588e+01,-1.827662874231527326e+02,-1.827625867660864003e+02
2.376840286624878445e+03,3.998946472737778635e+01,3.998946467499145996e+01,-1.828177704389932217e+02,-1.828141373265292486e+02
2.421029046736180135e+03,3.998906985369000466e+01,3.998906980319853233e+01,-1.828702034315988953e+02,-1.828666366309093974e+02
2.466039337234341019e+03,3.998866019891777768e+01,3.998866015025263465e+01,-1.829236038430331064e+02,-1.829201021437919223e+02
2.511886431509582053e+03,3.998823521124595004e+01,3.998823516434107717e+01,-1.829779894238467364e+02,-1.829745516378185357e+02
2.558585886905647840e+03,3.998779431837095188e+01,3.998779427316266322e+01,-1.830333782379868239e+02,-1.830300031986240583e+02
2.606153549998897688e+03,3.998733692674860407e+01,3.998733688317555135e+01,-1.830897886677497297e+02,-1.830864752297967755e+02
2.654605561975541605e+03,3.998686242081505782e+01,3.998686237881808836e+01,-1.831472394187760244e+02,-1.831439864578804588e+02
2.703958364108846126e+03,3.998637016217980999e+01,3.998637012170190985e+01,-1.832057495250858778e+02,-1.832025559374170598e+02
2.754228703338168998e+03,3.998585948878985619e+01,3.998585944977607198e+01,-1.832653383541524477e+02,-1.832622030560269195e+02
2.805433637951716264e+03,3.998532971406415015e+01,3.998532967646153224e+01,-1.833260256120113354e+02,-1.833229475395250745e+02
2.857590543374949448e+03,3.998478012599720444e+01,3.998478008975471454e+01,-1.833878313484028126e+02,-1.833848094570702187e+02
2.910717118066608236e+03,3.998420998623089417e+01,3.998420995129932720e+01,-1.834507759619451122e+02,-1.834478092263446456e+02
2.964831389524345468e+03,3.998361852909339120e+01,3.998361849542533974e+01,-1.835148802053349470e+02,-1.835119676187610196e+02
3.019951720402018964e+03,3.998300496060414133e+01,3.998300492815389617e+01,-1.835801651905723304e+02,-1.835773057646939037e+02
3.076096814740711125e+03,3.998236845744374079e+01,3.998236842616725539e+01,-1.836466523942064839e+02,-1.836438451587315228e+02
3.133285724315588595e+03,3.998170816588763188e+01,3.998170813574243709e+01,-1.837143636625984868e+02,-1.837116076649447791e+02
3.191537855100765228e+03,3.998102320070233873e+01,3.998102317164753572e+01,-1.837833212171971695e+02,-1.837806155221691711e+02
3.250872973854347038e+03,3.998031264400319174e+01,3.998031261599932407e+01,-1.838535476598237040e+02,-1.838508913492950114e+02
3.311311214825914249e+03,3.997957554407206260e+01,3.997957551708112334e+01,-1.839250659779598607e+02,-1.839224581505618232e+02
3.372873086588692331e+03,3.997881091413414367e+01,3.997881088811949724e+01,-1.839978995500358110e+02,-1.839953393208515990e+02
3.435579478998749892e+03,3.997801773109219425e+01,3.997801770601851956e+01,-1.840720721507109374e+02,-1.840695586509752673e+02
3.499451670283577187e+03,3.997719493421708137e+01,3.997719491005034342e+01,-1.841476079561429060e+02,-1.841451403329472214e+02
3.564511334262446326e+03,3.997634142379322952e+01,3.997634140050061546e+01,-1.842245315492381224e+02,-1.842221089652412331e+02
3.630780547701016985e+03,3.997545605971751570e+01,3.997545603726742769e+01,-1.843028679248776029e+02,-1.843004895580215248e+02
3.698281797802666460e+03,3.997453766005033060e+01,3.997453763841229346e+01,-1.843826424951106731e+02,-1.843803075383416399e+02
3.767037989839092916e+03,3.997358499951715061e+01,3.997358497866177629e+01,-1.844638810943094711e+02,-1.844615887553040636e+02
3.837072454922792076e+03,3.997259680795932013e+01,3.997259678785830772e+01,-1.845466099842758183e+02,-1.845443594851722651e+02
3.908408957924024890e+03,3.997157176873248829e+01,3.997157174935855295e+01,-1.846308558592925237e+02,-1.846286464364265498e+02
3.981071705534977355e+03,3.997050851705105146e+01,3.997050849837788888e+01,-1.847166458511096323e+02,-1.847144767547554522e+02
4.055085354483843275e+03,3.996940563827720894e+01,3.996940562027947408e+01,-1.848040075338560371e+02,-1.848018780279718385e+02
4.130475019901618907e+03,3.996826166615291243e+01,3.996826164880616261e+01,-1.848929689288665372e+02,-1.848908782908448529e+02
4.207266283844445752e+03,3.996707508097312456e+01,3.996707506425382661e+01,-1.849835585094133421e+02,-1.849815060298357423e+02
4.285485203974391879e+03,3.996584430769885188e+01,3.996584429158431107e+01,-1.850758052053303402e+02,-1.850737901877267007e+02
4.365158322401656733e+03,3.996456771400809060e+01,3.996456769847642931e+01,-1.851697384075181958e+02,-1.851677601681304566e+02
4.446312674691083885e+03,3.996324360828320721e+01,3.996324359331333653e+01,-1.852653879723173702e+02,-1.852634458398674724e+02
4.528975799036204080e+03,3.996187023753294199e+01,3.996187022310454751e+01,-1.853627842257350835e+02,-1.853608775411971408e+02
4.613175745603790347e+03,3.996044578524740132e+01,3.996044577134090048e+01,-1.854619579675121770e+02,-1.854600860838888821e+02
4.698941086052151149e+03,3.995896836918427653e+01,3.995896835578079020e+01,-1.855629404750141305e+02,-1.855611027571172542e+02
4.786300923226380291e+03,3.995743603908457686e+01,3.995743602616589385e+01,-1.856657635069305172e+02,-1.856639593311652163e+02
4.875284901033860478e+03,3.995584677431610743e+01,3.995584676186471285e+01,-1.857704593067652183e+02,-1.857686880609186346e+02
4.965923214503357485e+03,3.995419848144314301e+01,3.995419846944213305e+01,-1.858770606061001160e+02,-1.858753216891335001e+02
5.058246620031137354e+03,3.995248899172026569e+01,3.995248898015334049e+01,-1.859856006276124560e+02,-1.859838934494572982e+02
5.152286445817561798e+03,3.995071605850897356e+01,3.995071604736043014e+01,-1.860961130878265521e+02,-1.860944370691842096e+02
5.248074602497723390e+03,3.994887735461511369e+01,3.994887734386982459e+01,-1.862086321995779770e+02,-1.862069867717232796e+02
5.345643593969713947e+03,3.994697046954564001e+01,3.994697045918901779e+01,-1.863231926741686095e+02,-1.863215772787567630e+02
5.445026528424208664e+03,3.994499290668291280e+01,3.994499289670090292e+01,-1.864398297231887227e+02,-1.864382438120658776e+02
5.546257129579104912e+03,3.994294208037499772e+01,3.994294207075405012e+01,-1.865585790599816391e+02,-1.865570220949988709e+02
5.649369748123022873e+03,3.994081531294038001e+01,3.994081530366742783e+01,-1.866794769007250920e+02,-1.866779483535558199e+02
5.754399373371566071e+03,3.993860983158551647e+01,3.993860982264797599e+01,-1.868025599651017785e+02,-1.868010593170624531e+02
5.861381645140284490e+03,3.993632276523383950e+01,3.993632275661957465e+01,-1.869278654765311387e+02,-1.869263922184052262e+02
5.970352865838365688e+03,3.993395114126470702e+01,3.993395113296203647e+01,-1.870554311619317787e+02,-1.870539847937970421e+02
6.081350012787176638e+03,3.993149188216111156e+01,3.993149187415875190e+01,-1.871852952509835575e+02,-1.871838752820423792e+02
6.194410750767811805e+03,3.992894180206472754e+01,3.992894179435181456e+01,-1.873174964748564548e+02,-1.873161024232692284e+02
6.309573444801931146e+03,3.992629760323736576e+01,3.992629759580344739e+01,-1.874520740643712600e+02,-1.874507054570929370e+02
6.426877173170193601e+03,3.992355587242769133e+01,3.992355586526266364e+01,-1.875890677475568680e+02,-1.875877241201765457e+02
6.546361740672747146e+03,3.992071307714229533e+01,3.992071307023643101e+01,-1.877285177465659558e+02,-1.877271986431490234e+02
6.668067692136218284e+03,3.991776556182048097e+01,3.991776555516440794e+01,-1.878704647739095890e+02,-1.878691697468433688e+02
6.792036326171843029e+03,3.991470954391207471e+01,3.991470953749675488e+01,-1.880149500279705421e+02,-1.880136786378120632e+02
6.918309709189362366e+03,3.991154110985787185e+01,3.991154110367460106e+01,-1.881620151877515070e+02,-1.881607670030786039e+02
7.046930689671467007e+03,3.990825621097253872e+01,3.990825620501293258e+01,-1.883117024068142484e+02,-1.883104770040790754e+02
7.177942912713614533e+03,3.990485065922988639e+01,3.990485065348584470e+01,-1.884640543063630389e+02,-1.884628512697483416e+02
7.311390834834171983e+03,3.990132012295080699e+01,3.990132011741452800e+01,-1.886191139674241981e+02,-1.886179328887023132e+02
7.447319739059888889e+03,3.989766012239427084e+01,3.989766011705823701e+01,-1.887769249220714585e+02,-1.887757654004656729e+02
7.585775750291835720e+03,3.989386602525222258e+01,3.989386602010920058e+01,-1.889375311436451739e+02,-1.889363927856937835e+02
7.726805850957020994e+03,3.988993304204944224e+01,3.988993303709244742e+01,-1.891009770359112849e+02,-1.890998594553340411e+02
7.870457896950984832e+03,3.988585622144957199e+01,3.988585621667187553e+01,-1.892673074211041353e+02,-1.892662102386712206e+02
8.016780633876789580e+03,3.988163044546931957e+01,3.988163044086444131e+01,-1.894365675267955282e+02,-1.894354903701988633e+02
8.165823713585922633e+03,3.987725042460277081e+01,3.987725042016445798e+01,-1.896088029715297409e+02,-1.896077454752566211e+02
8.317637711026709439e+03,3.987271069285834812e+01,3.987271068858056111e+01,-1.897840597491633332e+02,-1.897830215543724250e+02
8.472274141405963746e+03,3.986800560271151284e+01,3.986800559858846782e+01,-1.899623842118458015e+02,-1.899613649662453554e+02
8.629785477669702232e+03,3.986312931997660058e+01,3.986312931600268428e+01,-1.901438230515759358e+02,-1.901428224093041877e+02
8.790225168308841603e+03,3.985807581860166238e+01,3.985807581477149597e+01,-1.903284232802662643e+02,-1.903274409017742812e+02
8.953647655495937215e+03,3.985283887539103631e+01,3.985283887169941153e+01,-1.905162322082474304e+02,-1.905152677601836331e+02
9.120108393559095930e+03,3.984741206466055274e+01,3.984741206110244605e+01,-1.907072974211406517e+02,-1.907063505762378384e+02
9.289663867799363288e+03,3.984178875283119226e+01,3.984178874940178616e+01,-1.909016667550274917e+02,-1.909007371919918228e+02
9.462371613657929629e+03,3.983596209296760549e+01,3.983596208966224594e+01,-1.910993882698423079e+02,-1.910984756732440815e+02
9.638290236239705337e+03,3.982992501926852214e+01,3.982992501608272562e+01,-1.913005102209126278e+02,-1.912996142810795277e+02
9.817479430199844501e+03,3.982367024151691481e+01,3.982367023844635412e+01,-1.915050810285720786e+02,-1.915042014414838150e+02
1.000000000000000000e+04,3.981719023949856506e+01,3.981719023653907641e+01,-1.917131492457675108e+02,-1.917122857129529052e+02
1.018591388054116942e+04,3.981047725739848886e+01,3.981047725454604347e+01,-1.919247635235837777e+02,-1.919239157520192975e+02
1.037528415818012581e+04,3.980352329818553869e+01,3.980352329543626411e+01,-1.921399725746066736e+02,-1.921391402766170415e+02
1.056817509213658559e+04,3.979632011799650115e+01,3.979632011534667413e+01,-1.923588251340458726e+02,-1.923580080272066084e+02
1.076465213629834943e+04,3.978885922053189006e+01,3.978885921797790814e+01,-1.925813699185389964e+02,-1.925805677255802664e+02
1.096478196143185050e+04,3.978113185147670094e+01,3.978113184901509669e+01,-1.928076555825579987e+02,-1.928068680312708523e+02
1.116863247780561142e+04,3.977312899296045856e+01,3.977312899058788531e+01,-1.930377306723405582e+02,-1.930369574954843586e+02
1.137627285823430793e+04,3.976484135807198328e+01,3.976484135578523649e+01,-1.932716435772692307e+02,-1.932708845124810750e+02
1.158777356155126108e+04,3.975625938544545335e+01,3.975625938324142084e+01,-1.935094424786230149e+02,-1.935086972683286035e+02
1.180320635651729754e+04,3.974737323393549104e+01,3.974737323181118143e+01,-1.937511752956281725e+02,-1.937504436869544975e+02
1.202264434617413099e+04,3.973817277740036502e+01,3.973817277535288639e+01,-1.939968896287368239e+02,-1.939961713734263355e+02
1.224616199265048999e+04,3.972864759961349534e+01,3.972864759764008369e+01,-1.942466327000653905e+02,-1.942459275543917556e+02
1.247383514242943238e+04,3.971878698932493279e+01,3.971878698742290226e+01,-1.945004512909285666e+02,-1.944997590156139324e+02
1.270574105208541914e+04,3.970857993549565634e+01,3.970857993366242056e+01,-1.947583916764076264e+02,-1.947577120365414771e+02
1.294195841449986256e+04,3.969801512272901789e+01,3.969801512096209706e+01,-1.950204995568985282e+02,-1.950198323218579333e+02
1.318256738556407436e+04,3.968708092692504152e+01,3.968708092522202691e+01,-1.952868199865889096e+02,-1.952861649299602789e+02
1.342764961137864157e+04,3.967576541118460653e+01,3.967576540954318887e+01,-1.955573972988208027e+02,-1.955567541983230910e+02
1.367728825595849412e+04,3.966405632199204945e+01,3.966405632041001184e+01,-1.958322750283025755e+02,-1.958316436657118231e+02
1.393156802945303752e+04,3.965194108570614162e+01,3.965194108418132402e+01,-1.961114958301412798e+02,-1.961108759912164601e+02
1.419057521689092573e+04,3.963940680539065653e+01,3.963940680392098415e+01,-1.963951013956761358e+02,-1.963944928700866797e+02
1.445439770745928035e+04,3.962644025801739645e+01,3.962644025660089397e+01,-1.966831323651034893e+02,-1.966825349463577481e+02
1.472312502432719339e+04,3.961302789207573483e+01,3.961302789071046959e+01,-1.969756282368942379e+02,-1.969750417222695091e+02
1.499684835502374153e+04,3.959915582562403102e+01,3.959915582430814851e+01,-1.972726272740170828e+02,-1.972720514644906871e+02
1.527566058238072947e+04,3.958480984481976606e+01,3.958480984355147569e+01,-1.975741664069934700e+02,-1.975736011071753637e+02
1.555965631605075032e+04,3.956997540296625715e+01,3.956997540174383943e+01,-1.978802811338246386e+02,-1.978797261518910204e+02
1.584893192461114086e+04,3.955463762011505935e+01,3.955463761893686581e+01,-1.981910054168459112e+02,-1.981904605644741650e+02
1.614358556826487074e+04,3.953878128326425667e+01,3.953878128212866727e+01,-1.985063715765801078e+02,-1.985058366688848821e+02
1.644371723214932354e+04,3.952239084719352746e+01,3.952239084609902164e+01,-1.988264101826794388e+02,-1.988258850381499485e+02
1.674942876026438171e+04,3.950545043597817596e+01,3.950545043492325448e+01,-1.991511499420633413e+02,-1.991506343825017495e+02
1.706082389003124263e+04,3.948794384522430789e+01,3.948794384420754966e+01,-1.994806175843805249e+02,-1.994801114348413762e+02
1.737800828749376160e+04,3.946985454506854296e+01,3.946985454408856242e+01,-1.998148377449433895e+02,-1.998143408336744926e+02
1.770108958317422002e+04,3.945116568398530887e+01,3.945116568304077020e+01,-2.001538328453061979e+02,-2.001533450036901058e+02
1.803017740859570040e+04,3.943186009344530163e+01,3.943186009253493296e+01,-2.004976229716799878e+02,-2.004971440341768698e+02
1.836538343348347553e+04,3.941192029346844805e+01,3.941192029259100593e+01,-2.008462257514033809e+02,-2.008457555554948613e+02
1.870682140365801752e+04,3.939132849911402445e+01,3.939132849826832228e+01,-2.011996562277112446e+02,-2.011991946138452079e+02
1.905460717963248317e+04,3.937006662795045031e+01,3.937006662713532990e+01,-2.015579267330713549e+02,-2.015574735446078876e+02
1.940885877592779434e+04,3.934811630854569131e+01,3.934811630776005842e+01,-2.019210467613839626e+02,-2.019206018445422046e+02
1.976969640111862100e+04,3.932545889001843875e+01,3.932545888926122046e+01,-2.022890228393681014e+02,-2.022885860431738649e+02
2.013724249862389479e+04,3.930207545268815750e+01,3.930207545195833774e+01,-2.026618583974847070e+02,-2.026614295737195164e+02
2.051162178825566662e+04,3.927794681986037517e+01,3.927794681915695207e+01,-2.030395536407764325e+02,-2.030391326439269903e+02
2.089296130854040894e+04,3.925305357078092072e+01,3.925305357010294216e+01,-2.034221054200305332e+02,-2.034216921072395792e+02
2.128139045982713287e+04,3.922737605479029099e+01,3.922737605413682616e+01,-2.038095071037010939e+02,-2.038091013347187754e+02
2.167704104819696295e+04,3.920089440670577119e+01,3.920089440607594611e+01,-2.042017484510530778e+02,-2.042013500881893435e+02
2.208004733018901243e+04,3.917358856345552454e+01,3.917358856284848656e+01,-2.045988154870192375e+02,-2.045984243950971972e+02
2.249054605835782786e+04,3.914543828198451081e+01,3.914543828139942150e+01,-2.050006903792870219e+02,-2.050003064255970173e+02
2.290867652767774416e+04,3.911642315844766671e+01,3.911642315788375157e+01,-2.054073513181574242e+02,-2.054069743724120656e+02
2.333458062281004459e+04,3.908652264870078596e+01,3.908652264815725630e+01,-2.058187723997429259e+02,-2.058184023340327826e+02
2.376840286624878354e+04,3.905571609009359690e+01,3.905571608956973506e+01,-2.062349235130924683e+02,-2.062345602018427542e+02
2.421029046736179953e+04,3.902398272456439088e+01,3.902398272405947921e+01,-2.066557702318527845e+02,-2.066554135517806685e+02
2.466039337234341292e+04,3.899130172302812269e+01,3.899130172254147197e+01,-2.070812737110923081e+02,-2.070809235411651912e+02
2.511886431509581962e+04,3.895765221104398535e+01,3.895765221057493477e+01,-2.075113905899293911e+02,-2.075110468113237516e+02
2.558585886905647931e+04,3.892301329574067381e+01,3.892301329528859100e+01,-2.079460729006179633e+02,-2.079457353966789981e+02
2.606153549998897870e+04,3.888736409397002092e+01,3.888736409353428769e+01,-2.083852679847523746e+02,-2.083849366409545780e+02
2.654605561975542150e+04,3.885068376165193627e+01,3.885068376123196288e+01,-2.088289184172577677e+02,-2.088285931211658522e+02
2.703958364108846217e+04,3.881295152426500294e+01,3.881295152386022096e+01,-2.092769619388319882e+02,-2.092766425800628269e+02
2.754228703338168634e+04,3.877414670842880184e+01,3.877414670803866414e+01,-2.097293313975017668e+02,-2.097290178676870767e+02
2.805433637951716446e+04,3.873424877451525106e+01,3.873424877413921763e+01,-2.101859546999462225e+02,-2.101856468926955870e+02
2.857590543374949630e+04,3.869323735021725241e+01,3.869323734985483298e+01,-2.106467547732266326e+02,-2.106464525840914632e+02
2.910717118066608236e+04,3.865109226499438932e+01,3.865109226464507231e+01,-2.111116495375423199e+02,-2.111113528639804713e+02
2.964831389524345286e+04,3.860779358530596284e+01,3.860779358496928637e+01,-2.115805518906072109e+02,-2.115802606319481072e+02
3.019951720402019055e+04,3.856332165053349570e+01,3.856332165020899083e+01,-2.120533697042109793e+02,-2.120530837616215365e+02
3.076096814740711488e+04,3.851765710948561150e+01,3.851765710917284480e+01,-2.125300058334923676e+02,-2.125297251099433709e+02
3.133285724315588959e+04,3.847078095737023773e+01,3.847078095706878287e+01,-2.130103581394093055e+02,-2.130100825396424966e+02
3.191537855100764864e+04,3.842267457311096024e+01,3.842267457282040510e+01,-2.134943195248433767e+02,-2.134940489553392524e+02
3.250872973854347219e+04,3.837331975687668972e+01,3.837331975659664351e+01,-2.139817779847214751e+02,-2.139815123536673127e+02
3.311311214825914794e+04,3.832269876768717154e+01,3.832269876741726478e+01,-2.144726166704776631e+02,-2.144723558877366827e+02
3.372873086588692240e+04,3.827079436095014842e+01,3.827079436068999740e+01,-2.149667139691151192e+02,-2.149664579461955611e+02
3.435579478998749983e+04,3.821758982578071340e+01,3.821758982552997708e+01,-2.154639435970560726e+02,-2.154636922470814397e+02
3.499451670283576823e+04,3.816306902194862971e+01,3.816306902170695992e+01,-2.159641747088952286e+02,-2.159639279465746711e+02
3.564511334262446326e+04,3.810721641629550760e+01,3.810721641606258459e+01,-2.164672720210921000e+02,-2.164670297626914532e+02
3.630780547701017349e+04,3.805001711846100676e+01,3.805001711823650368e+01,-2.169730959505565409e+02,-2.169728581138700463e+02
3.698281797802666551e+04,3.799145691575569117e+01,3.799145691553930959e+01,-2.174815027679963180e+02,-2.174812692723185421e+02
3.767037989839092916e+04,3.793152230701742411e+01,3.793152230680887271e+01,-2.179923447658077293e+02,-2.179921155319063928e+02
3.837072454922792531e+04,3.787020053528902963e+01,3.787020053508802420e+01,-2.185054704402025436e+02,-2.185052453902914351e+02
3.908408957924025162e+04,3.780747961915686517e+01,3.780747961896312148e+01,-2.190207246871732707e+02,-2.190205037448859571e+02
3.981071705534977082e+04,3.774334838259304092e+01,3.774334838240631029e+01,-2.195379490118110368e+02,-2.195377321021749424e+02
4.055085354483843548e+04,3.767779648314876084e+01,3.767779648296878747e+01,-2.200569817504000980e+02,-2.200567687998110387e+02
4.130475019901619089e+04,3.761081443835181659e+01,3.761081443817835179e+01,-2.205776583046276755e+02,-2.205774492408249046e+02
4.207266283844446298e+04,3.754239365016844232e+01,3.754239365000125161e+01,-2.210998113871634985e+02,-2.210996061392052070e+02
4.285485203974400793e+04,3.747252642739801587e+01,3.747252642723687188e+01,-2.216232712777830898e+02,-2.216230697760221915e+02
4.365158322401664918e+04,3.740120600587871280e+01,3.740120600572339526e+01,-2.221478660891335437e+02,-2.221476682651942838e+02
4.446312674691092980e+04,3.732842656639244439e+01,3.732842656624274724e+01,-2.226734220411710226e+02,-2.226732278279255581e+02
4.528975799036212993e+04,3.725418325016968168e+01,3.725418325002540598e+01,-2.231997637432337740e+02,-2.231995730747795506e+02
4.613175745603790710e+04,3.717847217190669795e+01,3.717847217176762342e+01,-2.237267144826598155e+02,-2.237265272942970569e+02
4.698941086052150786e+04,3.710129043022161710e+01,3.710129043008758032e+01,-2.242540965188074722e+02,-2.242539127470173810e+02
4.786300923226379382e+04,3.702263611548985267e+01,3.702263611536067600e+01,-2.247817313812963675e+02,-2.247815509637194396e+02
4.875284901033860660e+04,3.694250831501376808e+01,3.694250831488925257e+01,-2.253094401712557442e+02,-2.253092630466707362e+02
4.965923214503357303e+04,3.686090711549705645e+01,3.686090711537704578e+01,-2.258370438643418368e+02,-2.258368699726448483e+02
5.058246620031137718e+04,3.677783360280962910e+01,3.677783360269395274e+01,-2.263643636142740263e+02,-2.263641928964582064e+02
5.152286445817561616e+04,3.669328985904420648e+01,3.669328985893271522e+01,-2.268912210556347304e+02,-2.268910534537701835e+02
5.248074602497722663e+04,3.660727895688171429e+01,3.660727895677425892e+01,-2.274174386046840368e+02,-2.274172740618982971e+02
5.345643593969713402e+04,3.651980495129774340e+01,3.651980495119416759e+01,-2.279428397569552658e+02,-2.279426782174137998e+02
5.445026528424208664e+04,3.643087286865748098e+01,3.643087286855766394e+01,-2.284672493804217481e+02,-2.284670907893092249e+02
5.546257129579104367e+04,3.634048869326137776e+01,3.634048869316516317e+01,-2.289904940030597515e+02,-2.289903383065612559e+02
5.649369748123022146e+04,3.624865935141740181e+01,3.624865935132467598e+01,-2.295124020936738987e+02,-2.295122492389567981e+02
5.754399373371566617e+04,3.615539269312950665e+01,3.615539269304013459e+01,-2.300328043349029201e+02,-2.300326542700988171e+02
5.861381645140284672e+04,3.606069747150405647e+01,3.606069747141791026e+01,-2.305515338873804581e+02,-2.305513865615676821e+02
5.970352865838364960e+04,3.596458331998748292e+01,3.596458331990445600e+01,-2.310684266440921135e+02,-2.310682820072784978e+02
6.081350012787176092e+04,3.586706072755902852e+01,3.586706072747900009e+01,-2.315833214740395647e+02,-2.315831794771453076e+02
6.194410750767811260e+04,3.576814101201154017e+01,3.576814101193440365e+01,-2.320960604544000034e+02,-2.320959210492411273e+02
6.309573444801929872e+04,3.566783629146142687e+01,3.566783629138708278e+01,-2.326064890904495996e+02,-2.326063522297216082e+02
6.426877173170194146e+04,3.556615945423577330e+01,3.556615945416412217e+01,-2.331144565226035184e+02,-2.331143221598654236e+02
6.546361740672746964e+04,3.546312412729016472e+01,3.546312412722109997e+01,-2.336198157200134915e+02,-2.336196838096716704e+02
6.668067692136218830e+04,3.535874464331497080e+01,3.535874464324840716e+01,-2.341224236602508029e+02,-2.341222941575440757e+02
6.792036326171843393e+04,3.525303600669098358e+01,3.525303600662682868e+01,-2.346221414946941195e+02,-2.346220143556781466e+02
6.918309709189362184e+04,3.514601385845689663e+01,3.514601385839505809e+01,-2.351188346993290281e+02,-2.351187098808616724e+02
7.046930689671466826e+04,3.503769444045158110e+01,3.503769444039198788e+01,-2.356123732107574540e+02,-2.356122506704837747e+02
7.177942912713615806e+04,3.492809455879352498e+01,3.492809455873608471e+01,-2.361026315472990689e+02,-2.361025112436375650e+02
7.311390834834171983e+04,3.481723154685774801e+01,3.481723154680238252e+01,-2.365894889151551865e+02,-2.365893708072829327e+02
7.447319739059888525e+04,3.470512322790772686e+01,3.470512322785436510e+01,-2.370728292996823257e+02,-2.370727133475216704e+02
7.585775750291836448e+04,3.459178787753576501e+01,3.459178787748433592e+01,-2.375525415419062369e+02,-2.375524277061110183e+02
7.726805850957021175e+04,3.447724418606058094e+01,3.447724418601101348e+01,-2.380285194004756875e+02,-2.380284076424178750e+02
7.870457896950985014e+04,3.436151122102484123e+01,3.436151122097706434e+01,-2.385006615993273158e+02,-2.385005518810839646e+02
8.016780633876789943e+04,3.424460838992941802e+01,3.424460838988336775e+01,-2.389688718613959679e+02,-2.389687641457362588e+02
8.165823713585922087e+04,3.412655540333361870e+01,3.412655540328923109e+01,-2.394330589287626196e+02,-2.394329531791353247e+02
8.317637711026708712e+04,3.400737223844323154e+01,3.400737223840045687e+01,-2.398931365696863338e+02,-2.398930327502071691e+02
8.472274141405963746e+04,3.388707910330032291e+01,3.388707910325909722e+01,-2.403490235730124880e+02,-2.403489216484524036e+02
8.629785477669702959e+04,3.376569640167981845e+01,3.376569640164007780e+01,-2.408006437304921974e+02,-2.408005436662649572e+02
8.790225168308842694e+04,3.364324469878988566e+01,3.364324469875158030e+01,-2.412479258075816233e+02,-2.412478275697323795e+02
8.953647655495937215e+04,3.351974468786375638e+01,3.351974468782684369e+01,-2.416908035033214901e+02,-2.416907070585150450e+02
9.120108393559097021e+04,3.339521715772202271e+01,3.339521715768644583e+01,-2.421292153999193033e+02,-2.421291207154290248e+02
9.289663867799362924e+04,3.326968296137540904e+01,3.326968296134111824e+01,-2.425631049026774804e+02,-2.425630119463739049e+02
9.462371613657929993e+04,3.314316298572925490e+01,3.314316298569620756e+01,-2.429924201709207807e+02,-2.429923289112609268e+02
9.638290236239705700e+04,3.301567812244221045e+01,3.301567812241034972e+01,-2.434171140405880749e+02,-2.434170244466046995e+02
9.817479430199843773e+04,3.288724923998317706e+01,3.288724923995247451e+01,-2.438371439391541173e+02,-2.438370559804452853e+02
1.000000000000000000e+05,3.275789715692237536e+01,3.275789715689278125e+01,-2.442524717935474143e+02,-2.442523854402659822e+02
1.018591388054116978e+05,3.262764261648430875e+01,3.262764261645578756e+01,-2.446630639317243947e+02,-2.446629791545679780e+02
1.037528415818012581e+05,3.249650626238319973e+01,3.249650626235570172e+01,-2.450688909785517922e+02,-2.450688077487528176e+02
1.056817509213658486e+05,3.236450861595375272e+01,3.236450861592724948e+01,-2.454699277466359604e+02,-2.454698460359520311e+02
1.076465213629834907e+05,3.223167005458404333e+01,3.223167005455850642e+01,-2.458661531227230910e+02,-2.458660729034272663e+02
1.096478196143185050e+05,3.209801079145025682e+01,3.209801079142564362e+01,-2.462575499502756600e+02,-2.462574711951469908e+02
1.116863247780561214e+05,3.196355085654763428e+01,3.196355085652390571e+01,-2.466441049088097941e+02,-2.466440275911241997e+02
1.137627285823431012e+05,3.182831007900639264e+01,3.182831007898353448e+01,-2.470258083905566480e+02,-2.470257324840778494e+02
1.158777356155126181e+05,3.169230807067640399e+01,3.169230807065436295e+01,-2.474026543749851044e+02,-2.474025798539556433e+02
1.180320635651729972e+05,3.155556421095977271e+01,3.155556421093853459e+01,-2.477746403016986960e+02,-2.477745671408313797e+02
1.202264434617413208e+05,3.141809763286681800e+01,3.141809763284634371e+01,-2.481417669421931009e+02,-2.481416951166620777e+02
1.224616199265048926e+05,3.127992721026683043e+01,3.127992721024710221e+01,-2.485040382709316020e+02,-2.485039677563642613e+02
1.247383514242943202e+05,3.114107154630223562e+01,3.114107154628321439e+01,-2.488614613361703221e+02,-2.488613921086388814e+02
1.270574105208542023e+05,3.100154896293174644e+01,3.100154896291341444e+01,-2.492140461309344630e+02,-2.492139781669478964e+02
1.294195841449986328e+05,3.086137749156606702e+01,3.086137749154839938e+01,-2.495618054645205177e+02,-2.495617387410164554e+02
1.318256738556407508e+05,3.072057486475732446e+01,3.072057486474029631e+01,-2.499047548348696921e+02,-2.499046893292068603e+02
1.342764961137864157e+05,3.057915850890226039e+01,3.057915850888584330e+01,-2.502429123021317423e+02,-2.502428479920820052e+02
1.367728825595849485e+05,3.043714553791764033e+01,3.043714553790181654e+01,-2.505762983637096113e+02,-2.505762352274505531e+02
1.393156802945303498e+05,3.029455274784560359e+01,3.029455274783035890e+01,-2.509049358310493858e+02,-2.509048738471569493e+02
1.419057521689092682e+05,3.015139661234593405e+01,3.015139661233124002e+01,-2.512288497084150265e+02,-2.512287888558560951e+02
1.445439770745928108e+05,3.000769327903189065e+01,3.000769327901772954e+01,-2.515480670738606648e+02,-2.515480073319861560e+02
1.472312502432719339e+05,2.986345856660632592e+01,2.986345856659266929e+01,-2.518626169625912326e+02,-2.518625583111287654e+02
1.499684835502374044e+05,2.971870796275453230e+01,2.971870796274137305e+01,-2.521725302528771238e+02,-2.521724726719245382e+02
1.527566058238073310e+05,2.957345662275113796e+01,2.957345662273845477e+01,-2.524778395546692877e+02,-2.524777830246875396e+02
1.555965631605075032e+05,2.942771936873837646e+01,2.942771936872615157e+01,-2.527785791010375647e+02,-2.527785236028442455e+02
1.584893192461114086e+05,2.928151068963411774e+01,2.928151068962233339e+01,-2.530747846425376224e+02,-2.530747301573004790e+02
1.614358556826486893e+05,2.913484474162870441e+01,2.913484474161734639e+01,-2.533664933445926124e+02,-2.533664398538231239e+02
1.644371723214932426e+05,2.898773534923059003e+01,2.898773534921964412e+01,-2.536537436879580696e+02,-2.536536911735051660e+02
1.674942876026437734e+05,2.884019600682195517e+01,2.884019600681140361e+01,-2.539365753723228636e+02,-2.539365238163667016e+02
1.706082389003123972e+05,2.869223988068647557e+01,2.869223988067631126e+01,-2.542150292230835191e+02,-2.542149786081296270e+02
1.737800828749376233e+05,2.854387981147286268e+01,2.854387981146306075e+01,-2.544891471013167177e+02,-2.544890974101898280e+02
1.770108958317422075e+05,2.839512831705881268e+01,2.839512831704936602e+01,-2.547589718169591038e+02,-2.547589230327975542e+02
1.803017740859570040e+05,2.824599759578163471e+01,2.824599759577252911e+01,-2.550245470451961580e+02,-2.550244991514458661e+02
1.836538343348347407e+05,2.809649953000300826e+01,2.809649952999423306e+01,-2.552859172460456989e+02,-2.552858702264548469e+02
1.870682140365801461e+05,2.794664568997674436e+01,2.794664568996828891e+01,-2.555431275871177377e+02,-2.555430814257311738e+02
1.905460717963248317e+05,2.779644733798995659e+01,2.779644733798180312e+01,-2.557962238695188262e+02,-2.557961785506725505e+02
1.940885877592779580e+05,2.764591543274933372e+01,2.764591543274148222e+01,-2.560452524568636363e+02,-2.560452079651794861e+02
1.976969640111862100e+05,2.749506063398569466e+01,2.749506063397811673e+01,-2.562902602073490357e+02,-2.562902165277296831e+02
2.013724249862389406e+05,2.734389330725131373e+01,2.734389330724401646e+01,-2.565312944088401537e+02,-2.565312515264636772e+02
2.051162178825566662e+05,2.719242352888614178e+01,2.719242352887910741e+01,-2.567684027169103729e+02,-2.567683606172254258e+02
2.089296130854040966e+05,2.704066109113000849e+01,2.704066109112322636e+01,-2.570016330957762420e+02,-2.570015917644972205e+02
2.128139045982713578e+05,2.688861550735961714e+01,2.688861550735308725e+01,-2.572310337620601217e+02,-2.572309931851619353e+02
2.167704104819696222e+05,2.673629601743022022e+01,2.673629601742392481e+01,-2.574566531313130895e+02,-2.574566132950267274e+02
2.208004733018901316e+05,2.658371159310314624e+01,2.658371159309707465e+01,-2.576785397672260274e+02,-2.576785006580338973e+02
2.249054605835783004e+05,2.643087094354170574e+01,2.643087094353585798e+01,-2.578967423334555633e+02,-2.578967039380866026e+02
2.290867652767774707e+05,2.627778252085903432e+01,2.627778252085339261e+01,-2.581113095479880712e+02,-2.581112718534135979e+02
2.333458062281004386e+05,2.612445452570263527e+01,2.612445452569719961e+01,-2.583222901399665830e+02,-2.583222531333956340e+02
2.376840286624878354e+05,2.597089491286156004e+01,2.597089491285632690e+01,-2.585297328089004623e+02,-2.585296964777755306e+02
2.421029046736179735e+05,2.581711139688307455e+01,2.581711139687802614e+01,-2.587336861861809894e+02,-2.587336505181738175e+02
2.466039337234341074e+05,2.566311145768676738e+01,2.566311145768190016e+01,-2.589341987988232177e+02,-2.589341637818305344e+02
2.511886431509582035e+05,2.550890234616502639e+01,2.550890234616033325e+01,-2.591313190353554887e+02,-2.591312846574949731e+02
2.558585886905647931e+05,2.535449108975961963e+01,2.535449108975509702e+01,-2.593250951137784455e+02,-2.593250613633846342e+02
2.606153549998897652e+05,2.519988449800517927e+01,2.519988449800082009e+01,-2.595155750515158388e+02,-2.595155419171360904e+02
2.654605561975541641e+05,2.504508916803093754e+01,2.504508916802674179e+01,-2.597028066372794228e+02,-2.597027741076702796e+02
2.703958364108846290e+05,2.489011149001320788e+01,2.489011149000915779e+01,-2.598868374047734164e+02,-2.598868054688965117e+02
2.754228703338169144e+05,2.473495765257140278e+01,2.473495765256750190e+01,-2.600677146081624755e+02,-2.600676832551810094e+02
2.805433637951716082e+05,2.457963364810160201e+01,2.457963364809784679e+01,-2.602454851992306999e+02,-2.602454544185056875e+02
2.857590543374949484e+05,2.442414527804178093e+01,2.442414527803815716e+01,-2.604201958061590858e+02,-2.604201655872456058e+02
2.910717118066608091e+05,2.426849815806388833e+01,2.426849815806039601e+01,-2.605918927138519621e+02,-2.605918630464958028e+02
2.964831389524345286e+05,2.411269772318827975e+01,2.411269772318490823e+01,-2.607606218457427190e+02,-2.607605927198768541e+02
3.019951720402018982e+05,2.395674923281665869e+01,2.395674923281341151e+01,-2.609264287470126646e+02,-2.609264001527538426e+02
3.076096814740711125e+05,2.380065777568013274e+01,2.380065777567700636e+01,-2.610893585691579233e+02,-2.610893304968030861e+02
