 frequency       v(PSRR_dB)     
 1.00000000e-02  1.16181965e+02 
 1.02305973e-02  1.16181969e+02 
 1.04665121e-02  1.16181973e+02 
 1.07078670e-02  1.16181978e+02 
 1.09547876e-02  1.16181982e+02 
 1.12074020e-02  1.16181987e+02 
 1.14658417e-02  1.16181992e+02 
 1.17302409e-02  1.16181997e+02 
 1.20007371e-02  1.16182002e+02 
 1.22774708e-02  1.16182008e+02 
 1.25605860e-02  1.16182014e+02 
 1.28502297e-02  1.16182020e+02 
 1.31465525e-02  1.16182026e+02 
 1.34497085e-02  1.16182033e+02 
 1.37598551e-02  1.16182040e+02 
 1.40771537e-02  1.16182047e+02 
 1.44017690e-02  1.16182055e+02 
 1.47338699e-02  1.16182063e+02 
 1.50736290e-02  1.16182072e+02 
 1.54212228e-02  1.16182081e+02 
 1.57768320e-02  1.16182090e+02 
 1.61406415e-02  1.16182099e+02 
 1.65128404e-02  1.16182109e+02 
 1.68936220e-02  1.16182120e+02 
 1.72831844e-02  1.16182131e+02 
 1.76817299e-02  1.16182143e+02 
 1.80894658e-02  1.16182155e+02 
 1.85066040e-02  1.16182168e+02 
 1.89333613e-02  1.16182181e+02 
 1.93699595e-02  1.16182195e+02 
 1.98166255e-02  1.16182210e+02 
 2.02735916e-02  1.16182225e+02 
 2.07410951e-02  1.16182241e+02 
 2.12193792e-02  1.16182258e+02 
 2.17086923e-02  1.16182275e+02 
 2.22092889e-02  1.16182294e+02 
 2.27214291e-02  1.16182313e+02 
 2.32453791e-02  1.16182333e+02 
 2.37814113e-02  1.16182354e+02 
 2.43298042e-02  1.16182376e+02 
 2.48908429e-02  1.16182399e+02 
 2.54648190e-02  1.16182424e+02 
 2.60520309e-02  1.16182449e+02 
 2.66527837e-02  1.16182475e+02 
 2.72673897e-02  1.16182503e+02 
 2.78961683e-02  1.16182532e+02 
 2.85394464e-02  1.16182562e+02 
 2.91975583e-02  1.16182594e+02 
 2.98708461e-02  1.16182627e+02 
 3.05596598e-02  1.16182662e+02 
 3.12643573e-02  1.16182699e+02 
 3.19853049e-02  1.16182737e+02 
 3.27228774e-02  1.16182777e+02 
 3.34774581e-02  1.16182818e+02 
 3.42494392e-02  1.16182862e+02 
 3.50392221e-02  1.16182908e+02 
 3.58472171e-02  1.16182956e+02 
 3.66738442e-02  1.16183006e+02 
 3.75195331e-02  1.16183058e+02 
 3.83847234e-02  1.16183113e+02 
 3.92698648e-02  1.16183171e+02 
 4.01754173e-02  1.16183231e+02 
 4.11018515e-02  1.16183294e+02 
 4.20496491e-02  1.16183360e+02 
 4.30193027e-02  1.16183429e+02 
 4.40113162e-02  1.16183501e+02 
 4.50262052e-02  1.16183576e+02 
 4.60644974e-02  1.16183656e+02 
 4.71267322e-02  1.16183738e+02 
 4.82134619e-02  1.16183825e+02 
 4.93252513e-02  1.16183915e+02 
 5.04626783e-02  1.16184010e+02 
 5.16263340e-02  1.16184110e+02 
 5.28168234e-02  1.16184214e+02 
 5.40347650e-02  1.16184323e+02 
 5.52807921e-02  1.16184437e+02 
 5.65555523e-02  1.16184556e+02 
 5.78597080e-02  1.16184681e+02 
 5.91939372e-02  1.16184811e+02 
 6.05589334e-02  1.16184948e+02 
 6.19554061e-02  1.16185091e+02 
 6.33840810e-02  1.16185241e+02 
 6.48457008e-02  1.16185398e+02 
 6.63410251e-02  1.16185562e+02 
 6.78708313e-02  1.16185733e+02 
 6.94359143e-02  1.16185913e+02 
 7.10370877e-02  1.16186101e+02 
 7.26751838e-02  1.16186298e+02 
 7.43510539e-02  1.16186504e+02 
 7.60655691e-02  1.16186720e+02 
 7.78196206e-02  1.16186945e+02 
 7.96141200e-02  1.16187182e+02 
 8.14500001e-02  1.16187429e+02 
 8.33282151e-02  1.16187688e+02 
 8.52497412e-02  1.16187959e+02 
 8.72155772e-02  1.16188242e+02 
 8.92267449e-02  1.16188539e+02 
 9.12842895e-02  1.16188850e+02 
 9.33892805e-02  1.16189175e+02 
 9.55428121e-02  1.16189516e+02 
 9.77460036e-02  1.16189872e+02 
 1.00000000e-01  1.16190245e+02 
 1.02305973e-01  1.16190636e+02 
 1.04665121e-01  1.16191044e+02 
 1.07078670e-01  1.16175608e+02 
 1.09547876e-01  1.16176055e+02 
 1.12074020e-01  1.16176522e+02 
 1.14658417e-01  1.16177012e+02 
 1.17302409e-01  1.16177524e+02 
 1.20007371e-01  1.16178061e+02 
 1.22774708e-01  1.16178622e+02 
 1.25605860e-01  1.16179210e+02 
 1.28502297e-01  1.16179825e+02 
 1.31465525e-01  1.16180468e+02 
 1.34497085e-01  1.16181142e+02 
 1.37598551e-01  1.16181848e+02 
 1.40771537e-01  1.16182586e+02 
 1.44017690e-01  1.16183359e+02 
 1.47338699e-01  1.16184168e+02 
 1.50736290e-01  1.16185015e+02 
 1.54212228e-01  1.16185901e+02 
 1.57768320e-01  1.16186829e+02 
 1.61406415e-01  1.16154104e+02 
 1.65128404e-01  1.16155117e+02 
 1.68936220e-01  1.16156177e+02 
 1.72831844e-01  1.16175133e+02 
 1.76817299e-01  1.16176297e+02 
 1.80894658e-01  1.16177515e+02 
 1.85066040e-01  1.16178791e+02 
 1.89333613e-01  1.16146459e+02 
 1.93699595e-01  1.16147852e+02 
 1.98166255e-01  1.16149309e+02 
 2.02735916e-01  1.16150835e+02 
 2.07410951e-01  1.16186122e+02 
 2.12193792e-01  1.16187801e+02 
 2.17086923e-01  1.16173698e+02 
 2.22092889e-01  1.16175534e+02 
 2.27214291e-01  1.16177457e+02 
 2.32453791e-01  1.16179469e+02 
 2.37814113e-01  1.16181576e+02 
 2.43298042e-01  1.16183782e+02 
 2.48908429e-01  1.16186091e+02 
 2.54648190e-01  1.16172650e+02 
 2.60520309e-01  1.16175176e+02 
 2.66527837e-01  1.16177821e+02 
 2.72673897e-01  1.16180591e+02 
 2.78961683e-01  1.16149811e+02 
 2.85394464e-01  1.16170672e+02 
 2.91975583e-01  1.16173844e+02 
 2.98708461e-01  1.16177166e+02 
 3.05596598e-01  1.16180644e+02 
 3.12643573e-01  1.16184287e+02 
 3.19853049e-01  1.16172243e+02 
 3.27228774e-01  1.16176229e+02 
 3.34774581e-01  1.16180403e+02 
 3.42494392e-01  1.16168922e+02 
 3.50392221e-01  1.16189351e+02 
 3.58472171e-01  1.16194144e+02 
 3.66738442e-01  1.16183286e+02 
 3.75195331e-01  1.16154835e+02 
 3.83847234e-01  1.16160309e+02 
 3.92698648e-01  1.16183906e+02 
 4.01754173e-01  1.16189923e+02 
 4.11018515e-01  1.16180353e+02 
 4.20496491e-01  1.16186943e+02 
 4.30193027e-01  1.16160125e+02 
 4.40113162e-01  1.16151508e+02 
 4.50262052e-01  1.16192753e+02 
 4.60644974e-01  1.16184792e+02 
 4.71267322e-01  1.16177207e+02 
 4.82134619e-01  1.16152179e+02 
 4.93252513e-01  1.16179072e+02 
 5.04626783e-01  1.16154863e+02 
 5.16263340e-01  1.16182629e+02 
 5.28168234e-01  1.16177163e+02 
 5.40347650e-01  1.16172186e+02 
 5.52807921e-01  1.16183566e+02 
 5.65555523e-01  1.16179623e+02 
 5.78597080e-01  1.16192102e+02 
 5.91939372e-01  1.16189293e+02 
 6.05589334e-01  1.16187095e+02 
 6.19554061e-01  1.16185535e+02 
 6.33840810e-01  1.16184643e+02 
 6.48457008e-01  1.16184450e+02 
 6.63410251e-01  1.16184987e+02 
 6.78708313e-01  1.16186290e+02 
 6.94359143e-01  1.16188394e+02 
 7.10370877e-01  1.16175475e+02 
 7.26751838e-01  1.16195161e+02 
 7.43510539e-01  1.16166164e+02 
 7.60655691e-01  1.16189727e+02 
 7.78196206e-01  1.16162710e+02 
 7.96141200e-01  1.16188323e+02 
 8.14500001e-01  1.16181318e+02 
 8.33282151e-01  1.16175470e+02 
 8.52497412e-01  1.16202568e+02 
 8.72155772e-01  1.16165443e+02 
 8.92267449e-01  1.16197119e+02 
 9.12842895e-01  1.16180571e+02 
 9.33892805e-01  1.16147677e+02 
 9.55428121e-01  1.16149959e+02 
 9.77460036e-01  1.16153821e+02 
 1.00000000e+00  1.16193055e+02 
 1.02305973e+00  1.16184464e+02 
 1.04665121e+00  1.16177699e+02 
 1.07078670e+00  1.16204584e+02 
 1.09547876e+00  1.16167963e+02 
 1.12074020e+00  1.16185045e+02 
 1.14658417e+00  1.16152759e+02 
 1.17302409e+00  1.16156433e+02 
 1.20007371e+00  1.16162493e+02 
 1.22774708e+00  1.16188929e+02 
 1.25605860e+00  1.16166405e+02 
 1.28502297e+00  1.16198222e+02 
 1.31465525e+00  1.16149628e+02 
 1.34497085e+00  1.16169390e+02 
 1.37598551e+00  1.16160649e+02 
 1.40771537e+00  1.16204774e+02 
 1.44017690e+00  1.16168997e+02 
 1.47338699e+00  1.16170575e+02 
 1.50736290e+00  1.16160090e+02 
 1.54212228e+00  1.16169373e+02 
 1.57768320e+00  1.16166953e+02 
 1.61406415e+00  1.16168852e+02 
 1.65128404e+00  1.16159444e+02 
 1.68936220e+00  1.16204339e+02 
 1.72831844e+00  1.16170859e+02 
 1.76817299e+00  1.16160483e+02 
 1.80894658e+00  1.16171356e+02 
 1.85066040e+00  1.16172079e+02 
 1.89333613e+00  1.16178747e+02 
 1.93699595e+00  1.16191654e+02 
 1.98166255e+00  1.16179361e+02 
 2.02735916e+00  1.16173900e+02 
 2.07410951e+00  1.16175576e+02 
 2.12193792e+00  1.16184724e+02 
 2.17086923e+00  1.16185844e+02 
 2.22092889e+00  1.16179298e+02 
 2.27214291e+00  1.16197186e+02 
 2.32453791e+00  1.16192318e+02 
 2.37814113e+00  1.16196851e+02 
 2.43298042e+00  1.16195348e+02 
 2.48908429e+00  1.16204147e+02 
 2.54648190e+00  1.16191968e+02 
 2.60520309e+00  1.16206954e+02 
 2.66527837e+00  1.16168262e+02 
 2.72673897e+00  1.16209390e+02 
 2.78961683e+00  1.16180085e+02 
 2.85394464e+00  1.16200082e+02 
 2.91975583e+00  1.16182615e+02 
 2.98708461e+00  1.16181988e+02 
 3.05596598e+00  1.16181009e+02 
 3.12643573e+00  1.16180402e+02 
 3.19853049e+00  1.16196778e+02 
 3.27228774e+00  1.16182355e+02 
 3.34774581e+00  1.16187545e+02 
 3.42494392e+00  1.16180505e+02 
 3.50392221e+00  1.16193837e+02 
 3.58472171e+00  1.16179939e+02 
 3.66738442e+00  1.16189364e+02 
 3.75195331e+00  1.16207331e+02 
 3.83847234e+00  1.16201162e+02 
 3.92698648e+00  1.16182663e+02 
 4.01754173e+00  1.16181336e+02 
 4.11018515e+00  1.16192187e+02 
 4.20496491e+00  1.16200691e+02 
 4.30193027e+00  1.16208212e+02 
 4.40113162e+00  1.16200311e+02 
 4.50262052e+00  1.16210226e+02 
 4.60644974e+00  1.16207789e+02 
 4.71267322e+00  1.16226406e+02 
 4.82134619e+00  1.16211691e+02 
 4.93252513e+00  1.16230014e+02 
 5.04626783e+00  1.16205019e+02 
 5.16263340e+00  1.16197832e+02 
 5.28168234e+00  1.16206247e+02 
 5.40347650e+00  1.16215574e+02 
 5.52807921e+00  1.16211195e+02 
 5.65555523e+00  1.16229238e+02 
 5.78597080e+00  1.16223545e+02 
 5.91939372e+00  1.16197952e+02 
 6.05589334e+00  1.16229848e+02 
 6.19554061e+00  1.16218862e+02 
 6.33840810e+00  1.16240706e+02 
 6.48457008e+00  1.16253082e+02 
 6.63410251e+00  1.16275168e+02 
 6.78708313e+00  1.16240396e+02 
 6.94359143e+00  1.16243473e+02 
 7.10370877e+00  1.16267983e+02 
 7.26751838e+00  1.16252181e+02 
 7.43510539e+00  1.16260595e+02 
 7.60655691e+00  1.16291127e+02 
 7.78196206e+00  1.16265562e+02 
 7.96141200e+00  1.16295725e+02 
 8.14500001e+00  1.16275195e+02 
 8.33282151e+00  1.16292859e+02 
 8.52497412e+00  1.16286339e+02 
 8.72155772e+00  1.16283487e+02 
 8.92267449e+00  1.16315645e+02 
 9.12842895e+00  1.16305252e+02 
 9.33892805e+00  1.16319176e+02 
 9.55428121e+00  1.16335736e+02 
 9.77460036e+00  1.16345891e+02 
 1.00000000e+01  1.16376359e+02 
 1.02305973e+01  1.16372074e+02 
 1.04665121e+01  1.16358287e+02 
 1.07078670e+01  1.16373345e+02 
 1.09547876e+01  1.16403776e+02 
 1.12074020e+01  1.16389710e+02 
 1.14658417e+01  1.16400687e+02 
 1.17302409e+01  1.16405384e+02 
 1.20007371e+01  1.16458344e+02 
 1.22774708e+01  1.16435096e+02 
 1.25605860e+01  1.16441563e+02 
 1.28502297e+01  1.16452654e+02 
 1.31465525e+01  1.16483406e+02 
 1.34497085e+01  1.16477900e+02 
 1.37598551e+01  1.16499493e+02 
 1.40771537e+01  1.16524567e+02 
 1.44017690e+01  1.16540746e+02 
 1.47338699e+01  1.16581623e+02 
 1.50736290e+01  1.16559801e+02 
 1.54212228e+01  1.16603131e+02 
 1.57768320e+01  1.16601041e+02 
 1.61406415e+01  1.16653886e+02 
 1.65128404e+01  1.16643438e+02 
 1.68936220e+01  1.16655889e+02 
 1.72831844e+01  1.16693324e+02 
 1.76817299e+01  1.16727434e+02 
 1.80894658e+01  1.16735339e+02 
 1.85066040e+01  1.16762549e+02 
 1.89333613e+01  1.16775578e+02 
 1.93699595e+01  1.16806154e+02 
 1.98166255e+01  1.16878904e+02 
 2.02735916e+01  1.16876439e+02 
 2.07410951e+01  1.16926259e+02 
 2.12193792e+01  1.16925647e+02 
 2.17086923e+01  1.16983124e+02 
 2.22092889e+01  1.17015917e+02 
 2.27214291e+01  1.17050406e+02 
 2.32453791e+01  1.17143208e+02 
 2.37814113e+01  1.17153756e+02 
 2.43298042e+01  1.17211428e+02 
 2.48908429e+01  1.17256648e+02 
 2.54648190e+01  1.17295228e+02 
 2.60520309e+01  1.17368232e+02 
 2.66527837e+01  1.17416801e+02 
 2.72673897e+01  1.17470225e+02 
 2.78961683e+01  1.17535831e+02 
 2.85394464e+01  1.17603528e+02 
 2.91975583e+01  1.17661043e+02 
 2.98708461e+01  1.17756569e+02 
 3.05596598e+01  1.17839044e+02 
 3.12643573e+01  1.17892530e+02 
 3.19853049e+01  1.17975047e+02 
 3.27228774e+01  1.18051690e+02 
 3.34774581e+01  1.18152235e+02 
 3.42494392e+01  1.18265329e+02 
 3.50392221e+01  1.18368148e+02 
 3.58472171e+01  1.18445470e+02 
 3.66738442e+01  1.18510988e+02 
 3.75195331e+01  1.18636569e+02 
 3.83847234e+01  1.18765608e+02 
 3.92698648e+01  1.18863141e+02 
 4.01754173e+01  1.18993371e+02 
 4.11018515e+01  1.19139345e+02 
 4.20496491e+01  1.19301225e+02 
 4.30193027e+01  1.19430646e+02 
 4.40113162e+01  1.19606705e+02 
 4.50262052e+01  1.19755003e+02 
 4.60644974e+01  1.19920386e+02 
 4.71267322e+01  1.20090703e+02 
 4.82134619e+01  1.20288262e+02 
 4.93252513e+01  1.20484852e+02 
 5.04626783e+01  1.20742643e+02 
 5.16263340e+01  1.20891850e+02 
 5.28168234e+01  1.21095943e+02 
 5.40347650e+01  1.21299830e+02 
 5.52807921e+01  1.21551204e+02 
 5.65555523e+01  1.21804955e+02 
 5.78597080e+01  1.19446446e+02 
 5.91939372e+01  1.19673270e+02 
 6.05589334e+01  1.19939614e+02 
 6.19554061e+01  1.20193071e+02 
 6.33840810e+01  1.20481863e+02 
 6.48457008e+01  1.20766823e+02 
 6.63410251e+01  1.21114589e+02 
 6.78708313e+01  1.21493570e+02 
 6.94359143e+01  1.19135005e+02 
 7.10370877e+01  1.19422642e+02 
 7.26751838e+01  1.19767951e+02 
 7.43510539e+01  1.20083299e+02 
 7.60655691e+01  1.20459157e+02 
 7.78196206e+01  1.20848662e+02 
 7.96141200e+01  1.19664889e+02 
 8.14500001e+01  1.20058720e+02 
 8.33282151e+01  1.20459382e+02 
 8.52497412e+01  1.20898922e+02 
 8.72155772e+01  1.21407311e+02 
 8.92267449e+01  1.21906697e+02 
 9.12842895e+01  1.22372966e+02 
 9.33892805e+01  1.22928693e+02 
 9.55428121e+01  1.23553043e+02 
 9.77460036e+01  1.24226525e+02 
 1.00000000e+02  1.25052657e+02 
 1.02305973e+02  1.25807032e+02 
 1.04665121e+02  1.26738626e+02 
 1.07078670e+02  1.27738068e+02 
 1.09547876e+02  1.28847761e+02 
 1.12074020e+02  1.30160683e+02 
 1.14658417e+02  1.23339848e+02 
 1.17302409e+02  1.24164538e+02 
 1.20007371e+02  1.23282559e+02 
 1.22774708e+02  1.22827907e+02 
 1.25605860e+02  1.23690853e+02 
 1.28502297e+02  1.24559351e+02 
 1.31465525e+02  1.25667512e+02 
 1.34497085e+02  1.26785268e+02 
 1.37598551e+02  1.28220340e+02 
 1.40771537e+02  1.30050420e+02 
 1.44017690e+02  1.29428164e+02 
 1.47338699e+02  1.25167998e+02 
 1.50736290e+02  1.26484104e+02 
 1.54212228e+02  1.28058043e+02 
 1.57768320e+02  1.26343020e+02 
 1.61406415e+02  1.27921440e+02 
 1.65128404e+02  1.29835854e+02 
 1.68936220e+02  1.30000311e+02 
 1.72831844e+02  1.32629381e+02 
 1.76817299e+02  1.27715102e+02 
 1.80894658e+02  1.28038732e+02 
 1.85066040e+02  1.28525416e+02 
 1.89333613e+02  1.26140250e+02 
 1.93699595e+02  1.28042041e+02 
 1.98166255e+02  1.27714650e+02 
 2.02735916e+02  1.26685697e+02 
 2.07410951e+02  1.25182238e+02 
 2.12193792e+02  1.27115871e+02 
 2.17086923e+02  1.26782908e+02 
 2.22092889e+02  1.23500809e+02 
 2.27214291e+02  1.25175117e+02 
 2.32453791e+02  1.26271339e+02 
 2.37814113e+02  1.24529775e+02 
 2.43298042e+02  1.32287683e+02 
 2.48908429e+02  1.31755226e+02 
 2.54648190e+02  1.32367470e+02 
 2.60520309e+02  1.33201419e+02 
 2.66527837e+02  1.37089881e+02 
 2.72673897e+02  1.32122287e+02 
 2.78961683e+02  1.34521111e+02 
 2.85394464e+02  1.30785432e+02 
 2.91975583e+02  1.31971873e+02 
 2.98708461e+02  1.32239386e+02 
 3.05596598e+02  1.31165934e+02 
 3.12643573e+02  1.30221735e+02 
 3.19853049e+02  1.32429054e+02 
 3.27228774e+02  1.31758545e+02 
 3.34774581e+02  1.36736024e+02 
 3.42494392e+02  1.35271247e+02 
 3.50392221e+02  1.37057171e+02 
 3.58472171e+02  1.32111361e+02 
 3.66738442e+02  1.31436152e+02 
 3.75195331e+02  1.33406192e+02 
 3.83847234e+02  1.40243148e+02 
 3.92698648e+02  1.36038056e+02 
 4.01754173e+02  1.36763554e+02 
 4.11018515e+02  1.34741204e+02 
 4.20496491e+02  1.33117043e+02 
 4.30193027e+02  1.34524916e+02 
 4.40113162e+02  1.35309190e+02 
 4.50262052e+02  1.33541970e+02 
 4.60644974e+02  1.39518475e+02 
 4.71267322e+02  1.33161728e+02 
 4.82134619e+02  1.33570178e+02 
 4.93252513e+02  1.31245921e+02 
 5.04626783e+02  1.35293803e+02 
 5.16263340e+02  1.34617569e+02 
 5.28168234e+02  1.35538268e+02 
 5.40347650e+02  1.33851384e+02 
 5.52807921e+02  1.32926000e+02 
 5.65555523e+02  1.32815354e+02 
 5.78597080e+02  1.33688036e+02 
 5.91939372e+02  1.37235984e+02 
 6.05589334e+02  1.38264205e+02 
 6.19554061e+02  1.38650695e+02 
 6.33840810e+02  1.44562236e+02 
 6.48457008e+02  1.35126335e+02 
 6.63410251e+02  1.38222297e+02 
 6.78708313e+02  1.37668190e+02 
 6.94359143e+02  1.38157847e+02 
 7.10370877e+02  1.34609654e+02 
 7.26751838e+02  1.38944665e+02 
 7.43510539e+02  1.34684304e+02 
 7.60655691e+02  1.43312455e+02 
 7.78196206e+02  1.37586390e+02 
 7.96141200e+02  1.45872568e+02 
 8.14500001e+02  1.45046362e+02 
 8.33282151e+02  1.44432960e+02 
 8.52497412e+02  1.62122541e+02 
 8.72155772e+02  1.39794903e+02 
 8.92267449e+02  1.36755896e+02 
 9.12842895e+02  1.39320251e+02 
 9.33892805e+02  1.39208501e+02 
 9.55428121e+02  1.37870482e+02 
 9.77460036e+02  1.34957155e+02 
 1.00000000e+03  1.38468871e+02 
 1.02305973e+03  1.39980076e+02 
 1.04665121e+03  1.46698597e+02 
 1.07078670e+03  1.44444253e+02 
 1.09547876e+03  1.43026261e+02 
 1.12074020e+03  1.45635132e+02 
 1.14658417e+03  1.44438110e+02 
 1.17302409e+03  1.40495484e+02 
 1.20007371e+03  1.43068259e+02 
 1.22774708e+03  1.41903265e+02 
 1.25605860e+03  1.45515939e+02 
 1.28502297e+03  1.47030434e+02 
 1.31465525e+03  1.40895684e+02 
 1.34497085e+03  1.42297127e+02 
 1.37598551e+03  1.42393184e+02 
 1.40771537e+03  1.40237545e+02 
 1.44017690e+03  1.51432447e+02 
 1.47338699e+03  1.51842235e+02 
 1.50736290e+03  1.49129548e+02 
 1.54212228e+03  1.44020855e+02 
 1.57768320e+03  1.46418839e+02 
 1.61406415e+03  1.50002173e+02 
 1.65128404e+03  1.63055763e+02 
 1.68936220e+03  1.53224029e+02 
 1.72831844e+03  1.63241016e+02 
 1.76817299e+03  1.52237104e+02 
 1.80894658e+03  1.54941583e+02 
 1.85066040e+03  1.58222324e+02 
 1.89333613e+03  1.51769666e+02 
 1.93699595e+03  1.49218887e+02 
 1.98166255e+03  1.65319033e+02 
 2.02735916e+03  1.49154070e+02 
 2.07410951e+03  1.66715530e+02 
 2.12193792e+03  1.70502093e+02 
 2.17086923e+03  1.60262634e+02 
 2.22092889e+03  1.54614180e+02 
 2.27214291e+03  1.69877087e+02 
 2.32453791e+03  1.50337657e+02 
 2.37814113e+03  1.72150189e+02 
 2.43298042e+03  1.65126277e+02 
 2.48908429e+03  1.66915860e+02 
 2.54648190e+03  1.54909285e+02 
 2.60520309e+03  1.51786545e+02 
 2.66527837e+03  1.77000898e+02 
 2.72673897e+03  1.57171488e+02 
 2.78961683e+03  1.55712172e+02 
 2.85394464e+03  1.62440890e+02 
 2.91975583e+03  1.64336502e+02 
 2.98708461e+03  1.55631876e+02 
 3.05596598e+03  1.57577967e+02 
 3.12643573e+03  1.52542130e+02 
 3.19853049e+03  1.55382199e+02 
 3.27228774e+03  1.53425411e+02 
 3.34774581e+03  1.51909972e+02 
 3.42494392e+03  1.94044091e+02 
 3.50392221e+03  1.63849507e+02 
 3.58472171e+03  1.57614379e+02 
 3.66738442e+03  1.60008108e+02 
 3.75195331e+03  1.66186569e+02 
 3.83847234e+03  1.61153616e+02 
 3.92698648e+03  1.64585999e+02 
 4.01754173e+03  1.65863611e+02 
 4.11018515e+03  1.58113744e+02 
 4.20496491e+03  1.59647229e+02 
 4.30193027e+03  1.60041278e+02 
 4.40113162e+03  1.55864837e+02 
 4.50262052e+03  1.53790495e+02 
 4.60644974e+03  1.55990110e+02 
 4.71267322e+03  1.67438787e+02 
 4.82134619e+03  1.75829888e+02 
 4.93252513e+03  1.64294836e+02 
 5.04626783e+03  1.53779539e+02 
 5.16263340e+03  1.64561618e+02 
 5.28168234e+03  1.77863257e+02 
 5.40347650e+03  1.66945846e+02 
 5.52807921e+03  1.73111837e+02 
 5.65555523e+03  1.53926186e+02 
 5.78597080e+03  1.52265115e+02 
 5.91939372e+03  1.55020267e+02 
 6.05589334e+03  1.61037109e+02 
 6.19554061e+03  1.56210739e+02 
 6.33840810e+03  1.47790705e+02 
 6.48457008e+03  1.57096619e+02 
 6.63410251e+03  1.50586884e+02 
 6.78708313e+03  1.53687173e+02 
 6.94359143e+03  1.52434015e+02 
 7.10370877e+03  1.64891420e+02 
 7.26751838e+03  1.54456433e+02 
 7.43510539e+03  1.52976642e+02 
 7.60655691e+03  1.61228514e+02 
 7.78196206e+03  1.57160889e+02 
 7.96141200e+03  1.60955999e+02 
 8.14500001e+03  1.64427204e+02 
 8.33282151e+03  1.61664575e+02 
 8.52497412e+03  1.72024848e+02 
 8.72155772e+03  1.73837755e+02 
 8.92267449e+03  1.75084788e+02 
 9.12842895e+03  1.60625436e+02 
 9.33892805e+03  1.52210980e+02 
 9.55428121e+03  1.52296402e+02 
