 frequency       v(Zin_cm)       v(Zin_cm)      
 1.00000000e-02  5.62828377e+10 -2.27766943e+10 
 1.02305973e-02  5.62596515e+10 -2.23225809e+10 
 1.04665121e-02  5.62373711e+10 -2.18800238e+10 
 1.07078670e-02  5.62159529e+10 -2.14487954e+10 
 1.09547876e-02  5.61953470e+10 -2.10286742e+10 
 1.12074020e-02  5.61755135e+10 -2.06194439e+10 
 1.14658417e-02  5.61564112e+10 -2.02208940e+10 
 1.17302409e-02  5.61380006e+10 -1.98328192e+10 
 1.20007371e-02  5.61202433e+10 -1.94550195e+10 
 1.22774708e-02  5.61031027e+10 -1.90873001e+10 
 1.25605860e-02  5.60865458e+10 -1.87294714e+10 
 1.28502297e-02  5.60705328e+10 -1.83813484e+10 
 1.31465525e-02  5.60550334e+10 -1.80427516e+10 
 1.34497085e-02  5.60400152e+10 -1.77135059e+10 
 1.37598551e-02  5.60254473e+10 -1.73934410e+10 
 1.40771537e-02  5.60112992e+10 -1.70823914e+10 
 1.44017690e-02  5.59975445e+10 -1.67801961e+10 
 1.47338699e-02  5.59841491e+10 -1.64866985e+10 
 1.50736290e-02  5.59710880e+10 -1.62017464e+10 
 1.54212228e-02  5.59583341e+10 -1.59251922e+10 
 1.57768320e-02  5.59458636e+10 -1.56568922e+10 
 1.61406415e-02  5.59336454e+10 -1.53967071e+10 
 1.65128404e-02  5.59216567e+10 -1.51445016e+10 
 1.68936220e-02  5.59098728e+10 -1.49001445e+10 
 1.72831844e-02  5.58982718e+10 -1.46635087e+10 
 1.76817299e-02  5.58868245e+10 -1.44344707e+10 
 1.80894658e-02  5.58755097e+10 -1.42129110e+10 
 1.85066040e-02  5.58643068e+10 -1.39987142e+10 
 1.89333613e-02  5.58531871e+10 -1.37917678e+10 
 1.93699595e-02  5.58421331e+10 -1.35919638e+10 
 1.98166255e-02  5.58311166e+10 -1.33991972e+10 
 2.02735916e-02  5.58201174e+10 -1.32133669e+10 
 2.07410951e-02  5.58091155e+10 -1.30343753e+10 
 2.12193792e-02  5.57980828e+10 -1.28621277e+10 
 2.17086923e-02  5.57870020e+10 -1.26965335e+10 
 2.22092889e-02  5.57758448e+10 -1.25375046e+10 
 2.27214291e-02  5.57645936e+10 -1.23849571e+10 
 2.32453791e-02  5.57532199e+10 -1.22388093e+10 
 2.37814113e-02  5.57417056e+10 -1.20989836e+10 
 2.43298042e-02  5.57300245e+10 -1.19654048e+10 
 2.48908429e-02  5.57181497e+10 -1.18380008e+10 
 2.54648190e-02  5.57060624e+10 -1.17167031e+10 
 2.60520309e-02  5.56937351e+10 -1.16014457e+10 
 2.66527837e-02  5.56811398e+10 -1.14921652e+10 
 2.72673897e-02  5.56682562e+10 -1.13888021e+10 
 2.78961683e-02  5.56550552e+10 -1.12912986e+10 
 2.85394464e-02  5.56415100e+10 -1.11996003e+10 
 2.91975583e-02  5.56275902e+10 -1.11136550e+10 
 2.98708461e-02  5.56132729e+10 -1.10334141e+10 
 3.05596598e-02  5.55985263e+10 -1.09588308e+10 
 3.12643573e-02  5.55833205e+10 -1.08898612e+10 
 3.19853049e-02  5.55676246e+10 -1.08264639e+10 
 3.27228774e-02  5.55514070e+10 -1.07686000e+10 
 3.34774581e-02  5.55346375e+10 -1.07162334e+10 
 3.42494392e-02  5.55172770e+10 -1.06693293e+10 
 3.50392221e-02  5.54992932e+10 -1.06278564e+10 
 3.58472171e-02  5.54806501e+10 -1.05917853e+10 
 3.66738442e-02  5.54613128e+10 -1.05610893e+10 
 3.75195331e-02  5.54412373e+10 -1.05357426e+10 
 3.83847234e-02  5.54203864e+10 -1.05157229e+10 
 3.92698648e-02  5.53987210e+10 -1.05010099e+10 
 4.01754173e-02  5.53761954e+10 -1.04915846e+10 
 4.11018515e-02  5.53527625e+10 -1.04874299e+10 
 4.20496491e-02  5.53283810e+10 -1.04885319e+10 
 4.30193027e-02  5.53030003e+10 -1.04948773e+10 
 4.40113162e-02  5.52765705e+10 -1.05064551e+10 
 4.50262052e-02  5.52490396e+10 -1.05232560e+10 
 4.60644974e-02  5.52203540e+10 -1.05452723e+10 
 4.71267322e-02  5.51904576e+10 -1.05724979e+10 
 4.82134619e-02  5.51592924e+10 -1.06049282e+10 
 4.93252513e-02  5.51268007e+10 -1.06425607e+10 
 5.04626783e-02  5.50929145e+10 -1.06853924e+10 
 5.16263340e-02  5.50575739e+10 -1.07334240e+10 
 5.28168234e-02  5.50207087e+10 -1.07866555e+10 
 5.40347650e-02  5.49822460e+10 -1.08450880e+10 
 5.52807921e-02  5.49421179e+10 -1.09087253e+10 
 5.65555523e-02  5.49002460e+10 -1.09775704e+10 
 5.78597080e-02  5.48565541e+10 -1.10516281e+10 
 5.91939372e-02  5.48109552e+10 -1.11309018e+10 
 6.05589334e-02  5.47633697e+10 -1.12153983e+10 
 6.19554061e-02  5.47137042e+10 -1.13051217e+10 
 6.33840810e-02  5.46618724e+10 -1.14000792e+10 
 6.48457008e-02  5.46077768e+10 -1.15002761e+10 
 6.63410251e-02  5.45513190e+10 -1.16057179e+10 
 6.78708313e-02  5.44923969e+10 -1.17164101e+10 
 6.94359143e-02  5.44309074e+10 -1.18323583e+10 
 7.10370877e-02  5.43667381e+10 -1.19535661e+10 
 7.26751838e-02  5.42997732e+10 -1.20800358e+10 
 7.43510539e-02  5.42299025e+10 -1.22117722e+10 
 7.60655691e-02  5.41569970e+10 -1.23487737e+10 
 7.78196206e-02  5.40809333e+10 -1.24910405e+10 
 7.96141200e-02  5.40015839e+10 -1.26385709e+10 
 8.14500001e-02  5.39188118e+10 -1.27913595e+10 
 8.33282151e-02  5.38324782e+10 -1.29493992e+10 
 8.52497412e-02  5.37424424e+10 -1.31126816e+10 
 8.72155772e-02  5.36485518e+10 -1.32811921e+10 
 8.92267449e-02  5.35506588e+10 -1.34549168e+10 
 9.12842895e-02  5.34486068e+10 -1.36338364e+10 
 9.33892805e-02  5.33422294e+10 -1.38179253e+10 
 9.55428121e-02  5.32313654e+10 -1.40071579e+10 
 9.77460036e-02  5.31158421e+10 -1.42015008e+10 
 1.00000000e-01  5.29954866e+10 -1.44009175e+10 
 1.02305973e-01  5.28701149e+10 -1.46053628e+10 
 1.04665121e-01  5.27395477e+10 -1.48147900e+10 
 1.07078670e-01  5.26035969e+10 -1.50291439e+10 
 1.09547876e-01  5.24620677e+10 -1.52483612e+10 
 1.12074020e-01  5.23147641e+10 -1.54723726e+10 
 1.14658417e-01  5.21614858e+10 -1.57011009e+10 
 1.17302409e-01  5.20020313e+10 -1.59344623e+10 
 1.20007371e-01  5.18361912e+10 -1.61723613e+10 
 1.22774708e-01  5.16637576e+10 -1.64146963e+10 
 1.25605860e-01  5.14845153e+10 -1.66613530e+10 
 1.28502297e-01  5.12982490e+10 -1.69122084e+10 
 1.31465525e-01  5.11047433e+10 -1.71671302e+10 
 1.34497085e-01  5.09037773e+10 -1.74259720e+10 
 1.37598551e-01  5.06951309e+10 -1.76885772e+10 
 1.40771537e-01  5.04785855e+10 -1.79547785e+10 
 1.44017690e-01  5.02539205e+10 -1.82243944e+10 
 1.47338699e-01  5.00209143e+10 -1.84972289e+10 
 1.50736290e-01  4.97793483e+10 -1.87730738e+10 
 1.54212228e-01  4.95290062e+10 -1.90517072e+10 
 1.57768320e-01  4.92696783e+10 -1.93328957e+10 
 1.61406415e-01  4.90011496e+10 -1.96163835e+10 
 1.65128404e-01  4.87232186e+10 -1.99019076e+10 
 1.68936220e-01  4.84356843e+10 -2.01891852e+10 
 1.72831844e-01  4.81383557e+10 -2.04779210e+10 
 1.76817299e-01  4.78310464e+10 -2.07678010e+10 
 1.80894658e-01  4.75135818e+10 -2.10584987e+10 
 1.85066040e-01  4.71857942e+10 -2.13496689e+10 
 1.89333613e-01  4.68475288e+10 -2.16409520e+10 
 1.93699595e-01  4.64986447e+10 -2.19319749e+10 
 1.98166255e-01  4.61390116e+10 -2.22223459e+10 
 2.02735916e-01  4.57685172e+10 -2.25116619e+10 
 2.07410951e-01  4.53870626e+10 -2.27995018e+10 
 2.12193792e-01  4.49945679e+10 -2.30854326e+10 
 2.17086923e-01  4.45909736e+10 -2.33690099e+10 
 2.22092889e-01  4.41762376e+10 -2.36497732e+10 
 2.27214291e-01  4.37503409e+10 -2.39272526e+10 
 2.32453791e-01  4.33132882e+10 -2.42009695e+10 
 2.37814113e-01  4.28651060e+10 -2.44704327e+10 
 2.43298042e-01  4.24058470e+10 -2.47351445e+10 
 2.48908429e-01  4.19355903e+10 -2.49946012e+10 
 2.54648190e-01  4.14544422e+10 -2.52482938e+10 
 2.60520309e-01  4.09625380e+10 -2.54957122e+10 
 2.66527837e-01  4.04600400e+10 -2.57363409e+10 
 2.72673897e-01  3.99471411e+10 -2.59696668e+10 
 2.78961683e-01  3.94240644e+10 -2.61951793e+10 
 2.85394464e-01  3.88910635e+10 -2.64123721e+10 
 2.91975583e-01  3.83484233e+10 -2.66207472e+10 
 2.98708461e-01  3.77964575e+10 -2.68198106e+10 
 3.05596598e-01  3.72355130e+10 -2.70090858e+10 
 3.12643573e-01  3.66659646e+10 -2.71881032e+10 
 3.19853049e-01  3.60882186e+10 -2.73564139e+10 
 3.27228774e-01  3.55027104e+10 -2.75135866e+10 
 3.34774581e-01  3.49099017e+10 -2.76592056e+10 
 3.42494392e-01  3.43102829e+10 -2.77928823e+10 
 3.50392221e-01  3.37043695e+10 -2.79142510e+10 
 3.58472171e-01  3.30927011e+10 -2.80229725e+10 
 3.66738442e-01  3.24758392e+10 -2.81187347e+10 
 3.75195331e-01  3.18543668e+10 -2.82012602e+10 
 3.83847234e-01  3.12288842e+10 -2.82702973e+10 
 3.92698648e-01  3.06000086e+10 -2.83256325e+10 
 4.01754173e-01  2.99683706e+10 -2.83670850e+10 
 4.11018515e-01  2.93346122e+10 -2.83945086e+10 
 4.20496491e-01  2.86993844e+10 -2.84077965e+10 
 4.30193027e-01  2.80633439e+10 -2.84068775e+10 
 4.40113162e-01  2.74271511e+10 -2.83917167e+10 
 4.50262052e-01  2.67914667e+10 -2.83623210e+10 
 4.60644974e-01  2.61569496e+10 -2.83187287e+10 
 4.71267322e-01  2.55242537e+10 -2.82610228e+10 
 4.82134619e-01  2.48940255e+10 -2.81893172e+10 
 4.93252513e-01  2.42669012e+10 -2.81037655e+10 
 5.04626783e-01  2.36435046e+10 -2.80045539e+10 
 5.16263340e-01  2.30244440e+10 -2.78919052e+10 
 5.28168234e-01  2.24103109e+10 -2.77660721e+10 
 5.40347650e-01  2.18016767e+10 -2.76273406e+10 
 5.52807921e-01  2.11990915e+10 -2.74760250e+10 
 5.65555523e-01  2.06030825e+10 -2.73124659e+10 
 5.78597080e-01  2.00141511e+10 -2.71370311e+10 
 5.91939372e-01  1.94327733e+10 -2.69501100e+10 
 6.05589334e-01  1.88593967e+10 -2.67521150e+10 
 6.19554061e-01  1.82944409e+10 -2.65434755e+10 
 6.33840810e-01  1.77382954e+10 -2.63246392e+10 
 6.48457008e-01  1.71913200e+10 -2.60960674e+10 
 6.63410251e-01  1.66538442e+10 -2.58582324e+10 
 6.78708313e-01  1.61261662e+10 -2.56116182e+10 
 6.94359143e-01  1.56085543e+10 -2.53567145e+10 
 7.10370877e-01  1.51012452e+10 -2.50940179e+10 
 7.26751838e-01  1.46044456e+10 -2.48240276e+10 
 7.43510539e-01  1.41183330e+10 -2.45472431e+10 
 7.60655691e-01  1.36430548e+10 -2.42641646e+10 
 7.78196206e-01  1.31787303e+10 -2.39752885e+10 
 7.96141200e-01  1.27254509e+10 -2.36811081e+10 
 8.14500001e-01  1.22832814e+10 -2.33821099e+10 
 8.33282151e-01  1.18522613e+10 -2.30787728e+10 
 8.52497412e-01  1.14324048e+10 -2.27715677e+10 
 8.72155772e-01  1.10237033e+10 -2.24609551e+10 
 8.92267449e-01  1.06261264e+10 -2.21473838e+10 
 9.12842895e-01  1.02396220e+10 -2.18312914e+10 
 9.33892805e-01  9.86411922e+09 -2.15131017e+10 
 9.55428121e-01  9.49952814e+09 -2.11932258e+10 
 9.77460036e-01  9.14574306e+09 -2.08720590e+10 
 1.00000000e+00  8.80264210e+09 -2.05499826e+10 
 1.02305973e+00  8.47008849e+09 -2.02273631e+10 
 1.04665121e+00  8.14793366e+09 -1.99045500e+10 
 1.07078670e+00  7.83601641e+09 -1.95818781e+10 
 1.09547876e+00  7.53416555e+09 -1.92596657e+10 
 1.12074020e+00  7.24219971e+09 -1.89382158e+10 
 1.14658417e+00  6.95993040e+09 -1.86178147e+10 
 1.17302409e+00  6.68716118e+09 -1.82987332e+10 
 1.20007371e+00  6.42369000e+09 -1.79812263e+10 
 1.22774708e+00  6.16930898e+09 -1.76655342e+10 
 1.25605860e+00  5.92380703e+09 -1.73518808e+10 
 1.28502297e+00  5.68696904e+09 -1.70404763e+10 
 1.31465525e+00  5.45857765e+09 -1.67315156e+10 
 1.34497085e+00  5.23841402e+09 -1.64251798e+10 
 1.37598551e+00  5.02625767e+09 -1.61216366e+10 
 1.40771537e+00  4.82188865e+09 -1.58210400e+10 
 1.44017690e+00  4.62508666e+09 -1.55235313e+10 
 1.47338699e+00  4.43563246e+09 -1.52292397e+10 
 1.50736290e+00  4.25330816e+09 -1.49382825e+10 
 1.54212228e+00  4.07789807e+09 -1.46507653e+10 
 1.57768320e+00  3.90918766e+09 -1.43667836e+10 
 1.61406415e+00  3.74696627e+09 -1.40864218e+10 
 1.65128404e+00  3.59102550e+09 -1.38097547e+10 
 1.68936220e+00  3.44116038e+09 -1.35368479e+10 
 1.72831844e+00  3.29716947e+09 -1.32677578e+10 
 1.76817299e+00  3.15885507e+09 -1.30025325e+10 
 1.80894658e+00  3.02602343e+09 -1.27412121e+10 
 1.85066040e+00  2.89848503e+09 -1.24838291e+10 
 1.89333613e+00  2.77605421e+09 -1.22304091e+10 
 1.93699595e+00  2.65855017e+09 -1.19809708e+10 
 1.98166255e+00  2.54579619e+09 -1.17355270e+10 
 2.02735916e+00  2.43762019e+09 -1.14940843e+10 
 2.07410951e+00  2.33385465e+09 -1.12566439e+10 
 2.12193792e+00  2.23433661e+09 -1.10232021e+10 
 2.17086923e+00  2.13890774e+09 -1.07937503e+10 
 2.22092889e+00  2.04741428e+09 -1.05682755e+10 
 2.27214291e+00  1.95970707e+09 -1.03467607e+10 
 2.32453791e+00  1.87564154e+09 -1.01291851e+10 
 2.37814113e+00  1.79507739e+09 -9.91552430e+09 
 2.43298042e+00  1.71787904e+09 -9.70575095e+09 
 2.48908429e+00  1.64391528e+09 -9.49983460e+09 
 2.54648190e+00  1.57305907e+09 -9.29774219e+09 
 2.60520309e+00  1.50518764e+09 -9.09943823e+09 
 2.66527837e+00  1.44018261e+09 -8.90488499e+09 
 2.72673897e+00  1.37792946e+09 -8.71404277e+09 
 2.78961683e+00  1.31831777e+09 -8.52687009e+09 
 2.85394464e+00  1.26124101e+09 -8.34332386e+09 
 2.91975583e+00  1.20659649e+09 -8.16335954e+09 
 2.98708461e+00  1.15428518e+09 -7.98693139e+09 
 3.05596598e+00  1.10421190e+09 -7.81399250e+09 
 3.12643573e+00  1.05628466e+09 -7.64449508e+09 
 3.19853049e+00  1.01041514e+09 -7.47839047e+09 
 3.27228774e+00  9.66518276e+08 -7.31562936e+09 
 3.34774581e+00  9.24512248e+08 -7.15616187e+09 
 3.42494392e+00  8.84318411e+08 -6.99993763e+09 
 3.50392221e+00  8.45861070e+08 -6.84690597e+09 
 3.58472171e+00  8.09067476e+08 -6.69701593e+09 
 3.66738442e+00  7.73867807e+08 -6.55021640e+09 
 3.75195331e+00  7.40194951e+08 -6.40645618e+09 
 3.83847234e+00  7.07984488e+08 -6.26568408e+09 
 3.92698648e+00  6.77174463e+08 -6.12784895e+09 
 4.01754173e+00  6.47705535e+08 -5.99289979e+09 
 4.11018515e+00  6.19520656e+08 -5.86078577e+09 
 4.20496491e+00  5.92565118e+08 -5.73145633e+09 
 4.30193027e+00  5.66786407e+08 -5.60486117e+09 
 4.40113162e+00  5.42134240e+08 -5.48095037e+09 
 4.50262052e+00  5.18560283e+08 -5.35967435e+09 
 4.60644974e+00  4.96018298e+08 -5.24098397e+09 
 4.71267322e+00  4.74463854e+08 -5.12483055e+09 
 4.82134619e+00  4.53854462e+08 -5.01116588e+09 
 4.93252513e+00  4.34149326e+08 -4.89994226e+09 
 5.04626783e+00  4.15309357e+08 -4.79111253e+09 
 5.16263340e+00  3.97297166e+08 -4.68463009e+09 
 5.28168234e+00  3.80076868e+08 -4.58044892e+09 
 5.40347650e+00  3.63614094e+08 -4.47852358e+09 
 5.52807921e+00  3.47875979e+08 -4.37880926e+09 
 5.65555523e+00  3.32830995e+08 -4.28126174e+09 
 5.78597080e+00  3.18448953e+08 -4.18583746e+09 
 5.91939372e+00  3.04700996e+08 -4.09249349e+09 
 6.05589334e+00  2.91559447e+08 -4.00118756e+09 
 6.19554061e+00  2.78997829e+08 -3.91187802e+09 
 6.33840810e+00  2.66990795e+08 -3.82452393e+09 
 6.48457008e+00  2.55514087e+08 -3.73908497e+09 
 6.63410251e+00  2.44544487e+08 -3.65552149e+09 
 6.78708313e+00  2.34059776e+08 -3.57379452e+09 
 6.94359143e+00  2.24038703e+08 -3.49386575e+09 
 7.10370877e+00  2.14460901e+08 -3.41569752e+09 
 7.26751838e+00  2.05306917e+08 -3.33925285e+09 
 7.43510539e+00  1.96558127e+08 -3.26449539e+09 
 7.60655691e+00  1.88196725e+08 -3.19138949e+09 
 7.78196206e+00  1.80205649e+08 -3.11990009e+09 
 7.96141200e+00  1.72568588e+08 -3.04999283e+09 
 8.14500001e+00  1.65269992e+08 -2.98163396e+09 
 8.33282151e+00  1.58294911e+08 -2.91479039e+09 
 8.52497412e+00  1.51629089e+08 -2.84942962e+09 
 8.72155772e+00  1.45258890e+08 -2.78551982e+09 
 8.92267449e+00  1.39171261e+08 -2.72302973e+09 
 9.12842895e+00  1.33353719e+08 -2.66192872e+09 
 9.33892805e+00  1.27794340e+08 -2.60218678e+09 
 9.55428121e+00  1.22481716e+08 -2.54377445e+09 
 9.77460036e+00  1.17404944e+08 -2.48666288e+09 
 1.00000000e+01  1.12553583e+08 -2.43082381e+09 
 1.02305973e+01  1.07917661e+08 -2.37622952e+09 
 1.04665121e+01  1.03487661e+08 -2.32285287e+09 
 1.07078670e+01  9.92544556e+07 -2.27066727e+09 
 1.09547876e+01  9.52093265e+07 -2.21964665e+09 
 1.12074020e+01  9.13439477e+07 -2.16976552e+09 
 1.14658417e+01  8.76503592e+07 -2.12099887e+09 
 1.17302409e+01  8.41209431e+07 -2.07332224e+09 
 1.20007371e+01  8.07484220e+07 -2.02671167e+09 
 1.22774708e+01  7.75258318e+07 -1.98114368e+09 
 1.25605860e+01  7.44465340e+07 -1.93659531e+09 
 1.28502297e+01  7.15041684e+07 -1.89304408e+09 
 1.31465525e+01  6.86926654e+07 -1.85046797e+09 
 1.34497085e+01  6.60062053e+07 -1.80884543e+09 
 1.37598551e+01  6.34392439e+07 -1.76815536e+09 
 1.40771537e+01  6.09864811e+07 -1.72837714e+09 
 1.44017690e+01  5.86428356e+07 -1.68949056e+09 
 1.47338699e+01  5.64034690e+07 -1.65147584e+09 
 1.50736290e+01  5.42637471e+07 -1.61431365e+09 
 1.54212228e+01  5.22192428e+07 -1.57798506e+09 
 1.57768320e+01  5.02657280e+07 -1.54247154e+09 
 1.61406415e+01  4.83991548e+07 -1.50775497e+09 
 1.65128404e+01  4.66156594e+07 -1.47381762e+09 
 1.68936220e+01  4.49115547e+07 -1.44064215e+09 
 1.72831844e+01  4.32833076e+07 -1.40821159e+09 
 1.76817299e+01  4.17275437e+07 -1.37650934e+09 
 1.80894658e+01  4.02410403e+07 -1.34551915e+09 
 1.85066040e+01  3.88207221e+07 -1.31522516e+09 
 1.89333613e+01  3.74636422e+07 -1.28561182e+09 
 1.93699595e+01  3.61669866e+07 -1.25666393e+09 
 1.98166255e+01  3.49280714e+07 -1.22836663e+09 
 2.02735916e+01  3.37443229e+07 -1.20070538e+09 
 2.07410951e+01  3.26132913e+07 -1.17366597e+09 
 2.12193792e+01  3.15326265e+07 -1.14723449e+09 
 2.17086923e+01  3.05000907e+07 -1.12139734e+09 
 2.22092889e+01  2.95135387e+07 -1.09614121e+09 
 2.27214291e+01  2.85709305e+07 -1.07145312e+09 
 2.32453791e+01  2.76703051e+07 -1.04732033e+09 
 2.37814113e+01  2.68097928e+07 -1.02373040e+09 
 2.43298042e+01  2.59876118e+07 -1.00067118e+09 
 2.48908429e+01  2.52020530e+07 -9.78130768e+08 
 2.54648190e+01  2.44514872e+07 -9.56097540e+08 
 2.60520309e+01  2.37343578e+07 -9.34560125e+08 
 2.66527837e+01  2.30491730e+07 -9.13507398e+08 
 2.72673897e+01  2.23945142e+07 -8.92928492e+08 
 2.78961683e+01  2.17690179e+07 -8.72812771e+08 
 2.85394464e+01  2.11713882e+07 -8.53149845e+08 
 2.91975583e+01  2.06003838e+07 -8.33929549e+08 
 2.98708461e+01  2.00548198e+07 -8.15141948e+08 
 3.05596598e+01  1.95335615e+07 -7.96777325e+08 
 3.12643573e+01  1.90355272e+07 -7.78826181e+08 
 3.19853049e+01  1.85596827e+07 -7.61279231e+08 
 3.27228774e+01  1.81050384e+07 -7.44127393e+08 
 3.34774581e+01  1.76706525e+07 -7.27361792e+08 
 3.42494392e+01  1.72556205e+07 -7.10973748e+08 
 3.50392221e+01  1.68590809e+07 -6.94954776e+08 
 3.58472171e+01  1.64802106e+07 -6.79296583e+08 
 3.66738442e+01  1.61182212e+07 -6.63991055e+08 
 3.75195331e+01  1.57723615e+07 -6.49030267e+08 
 3.83847234e+01  1.54419127e+07 -6.34406467e+08 
 3.92698648e+01  1.51261882e+07 -6.20112077e+08 
 4.01754173e+01  1.48245321e+07 -6.06139690e+08 
 4.11018515e+01  1.45363177e+07 -5.92482064e+08 
 4.20496491e+01  1.42609460e+07 -5.79132120e+08 
 4.30193027e+01  1.39978449e+07 -5.66082936e+08 
 4.40113162e+01  1.37464681e+07 -5.53327748e+08 
 4.50262052e+01  1.35062920e+07 -5.40859939e+08 
 4.60644974e+01  1.32768182e+07 -5.28673045e+08 
 4.71267322e+01  1.30575623e+07 -5.16760725e+08 
 4.82134619e+01  1.28480838e+07 -5.05116840e+08 
 4.93252513e+01  1.26479398e+07 -4.93735330e+08 
 5.04626783e+01  1.24567145e+07 -4.82610291e+08 
 5.16263340e+01  1.22740098e+07 -4.71735950e+08 
 5.28168234e+01  1.20994461e+07 -4.61106663e+08 
 5.40347650e+01  1.19326612e+07 -4.50716918e+08 
 5.52807921e+01  1.17733076e+07 -4.40561319e+08 
 5.65555523e+01  1.16210544e+07 -4.30634598e+08 
 5.78597080e+01  1.14755855e+07 -4.20931603e+08 
 5.91939372e+01  1.13365980e+07 -4.11447297e+08 
 6.05589334e+01  1.12038032e+07 -4.02176755e+08 
 6.19554061e+01  1.10769252e+07 -3.93115168e+08 
 6.33840810e+01  1.09557001e+07 -3.84257828e+08 
 6.48457008e+01  1.08398758e+07 -3.75600139e+08 
 6.63410251e+01  1.07292115e+07 -3.67137604e+08 
 6.78708313e+01  1.06234742e+07 -3.58865818e+08 
 6.94359143e+01  1.05224508e+07 -3.50780512e+08 
 7.10370877e+01  1.04259275e+07 -3.42877473e+08 
 7.26751838e+01  1.03337039e+07 -3.35152598e+08 
 7.43510539e+01  1.02455884e+07 -3.27601875e+08 
 7.60655691e+01  1.01613975e+07 -3.20221381e+08 
 7.78196206e+01  1.00809560e+07 -3.13007285e+08 
 7.96141200e+01  1.00040973e+07 -3.05955839e+08 
 8.14500001e+01  9.93066115e+06 -2.99063382e+08 
 8.33282151e+01  9.86049285e+06 -2.92326322e+08 
 8.52497412e+01  9.79345104e+06 -2.85741182e+08 
 8.72155772e+01  9.72939410e+06 -2.79304530e+08 
 8.92267449e+01  9.66818859e+06 -2.73013022e+08 
 9.12842895e+01  9.60970748e+06 -2.66863391e+08 
 9.33892805e+01  9.55382892e+06 -2.60852441e+08 
 9.55428121e+01  9.50043697e+06 -2.54977050e+08 
 9.77460036e+01  9.44941925e+06 -2.49234157e+08 
 1.00000000e+02  9.40067263e+06 -2.43620797e+08 
 1.02305973e+02  9.35409402e+06 -2.38134043e+08 
 1.04665121e+02  9.30958663e+06 -2.32771046e+08 
