 frequency       v(Tmb_dB)       v(Tmb_arg)     
 1.00000000e-02  3.40823428e+01  1.71049156e+00 
 1.02305973e-02  3.40825635e+01  1.74990183e+00 
 1.04665121e-02  3.40827945e+01  1.79021854e+00 
 1.07078670e-02  3.40830363e+01  1.83146242e+00 
 1.09547876e-02  3.40832893e+01  1.87365469e+00 
 1.12074020e-02  3.40835541e+01  1.91681701e+00 
 1.14658417e-02  3.40838312e+01  1.96097156e+00 
 1.17302409e-02  3.40841213e+01  2.00614100e+00 
 1.20007371e-02  3.40844248e+01  2.05234850e+00 
 1.22774708e-02  3.40847425e+01  2.09961774e+00 
 1.25605860e-02  3.40850750e+01  2.14797294e+00 
 1.28502297e-02  3.40854230e+01  2.19743886e+00 
 1.31465525e-02  3.40857871e+01  2.24804081e+00 
 1.34497085e-02  3.40861683e+01  2.29980464e+00 
 1.37598551e-02  3.40865671e+01  2.35275681e+00 
 1.40771537e-02  3.40869846e+01  2.40692434e+00 
 1.44017690e-02  3.40874215e+01  2.46233485e+00 
 1.47338699e-02  3.40878787e+01  2.51901657e+00 
 1.50736290e-02  3.40883572e+01  2.57699836e+00 
 1.54212228e-02  3.40888579e+01  2.63630971e+00 
 1.57768320e-02  3.40893820e+01  2.69698074e+00 
 1.61406415e-02  3.40899304e+01  2.75904224e+00 
 1.65128404e-02  3.40905043e+01  2.82252567e+00 
 1.68936220e-02  3.40911049e+01  2.88746318e+00 
 1.72831844e-02  3.40917335e+01  2.95388759e+00 
 1.76817299e-02  3.40923913e+01  3.02183246e+00 
 1.80894658e-02  3.40930796e+01  3.09133205e+00 
 1.85066040e-02  3.40938000e+01  3.16242136e+00 
 1.89333613e-02  3.40945538e+01  3.23513614e+00 
 1.93699595e-02  3.40953426e+01  3.30951291e+00 
 1.98166255e-02  3.40961681e+01  3.38558893e+00 
 2.02735916e-02  3.40970320e+01  3.46340229e+00 
 2.07410951e-02  3.40979359e+01  3.54299186e+00 
 2.12193792e-02  3.40988818e+01  3.62439730e+00 
 2.17086923e-02  3.40998716e+01  3.70765914e+00 
 2.22092889e-02  3.41009074e+01  3.79281872e+00 
 2.27214291e-02  3.41019912e+01  3.87991823e+00 
 2.32453791e-02  3.41031252e+01  3.96900074e+00 
 2.37814113e-02  3.41043119e+01  4.06011018e+00 
 2.43298042e-02  3.41055535e+01  4.15329138e+00 
 2.48908429e-02  3.41068527e+01  4.24859006e+00 
 2.54648190e-02  3.41082120e+01  4.34605286e+00 
 2.60520309e-02  3.41096343e+01  4.44572735e+00 
 2.66527837e-02  3.41111225e+01  4.54766200e+00 
 2.72673897e-02  3.41126795e+01  4.65190627e+00 
 2.78961683e-02  3.41143086e+01  4.75851053e+00 
 2.85394464e-02  3.41160130e+01  4.86752615e+00 
 2.91975583e-02  3.41177962e+01  4.97900544e+00 
 2.98708461e-02  3.41196617e+01  5.09300171e+00 
 3.05596598e-02  3.41216134e+01  5.20956925e+00 
 3.12643573e-02  3.41236553e+01  5.32876334e+00 
 3.19853049e-02  3.41257913e+01  5.45064027e+00 
 3.27228774e-02  3.41280258e+01  5.57525730e+00 
 3.34774581e-02  3.41303633e+01  5.70267273e+00 
 3.42494392e-02  3.41328085e+01  5.83294585e+00 
 3.50392221e-02  3.41353662e+01  5.96613695e+00 
 3.58472171e-02  3.41380417e+01  6.10230735e+00 
 3.66738442e-02  3.41408401e+01  6.24151934e+00 
 3.75195331e-02  3.41437671e+01  6.38383624e+00 
 3.83847234e-02  3.41468286e+01  6.52932235e+00 
 3.92698648e-02  3.41500305e+01  6.67804294e+00 
 4.01754173e-02  3.41533792e+01  6.83006428e+00 
 4.11018515e-02  3.41568813e+01  6.98545358e+00 
 4.20496491e-02  3.41605437e+01  7.14427901e+00 
 4.30193027e-02  3.41643736e+01  7.30660966e+00 
 4.40113162e-02  3.41683784e+01  7.47251552e+00 
 4.50262052e-02  3.41725661e+01  7.64206748e+00 
 4.60644974e-02  3.41769447e+01  7.81533727e+00 
 4.71267322e-02  3.41815228e+01  7.99239745e+00 
 4.82134619e-02  3.41863093e+01  8.17332137e+00 
 4.93252513e-02  3.41913132e+01  8.35818314e+00 
 5.04626783e-02  3.41965443e+01  8.54705757e+00 
 5.16263340e-02  3.42020126e+01  8.74002011e+00 
 5.28168234e-02  3.42077285e+01  8.93714687e+00 
 5.40347650e-02  3.42137028e+01  9.13851446e+00 
 5.52807921e-02  3.42199469e+01  9.34420000e+00 
 5.65555523e-02  3.42264725e+01  9.55428104e+00 
 5.78597080e-02  3.42332918e+01  9.76883547e+00 
 5.91939372e-02  3.42404177e+01  9.98794142e+00 
 6.05589334e-02  3.42478631e+01  1.02116772e+01 
 6.19554061e-02  3.42556421e+01  1.04401213e+01 
 6.33840810e-02  3.42637687e+01  1.06733521e+01 
 6.48457008e-02  3.42722579e+01  1.09114477e+01 
 6.63410251e-02  3.42811250e+01  1.11544863e+01 
 6.78708313e-02  3.42903861e+01  1.14025455e+01 
 6.94359143e-02  3.43000577e+01  1.16557024e+01 
 7.10370877e-02  3.43101571e+01  1.19140335e+01 
 7.26751838e-02  3.43207020e+01  1.21776145e+01 
 7.43510539e-02  3.43317109e+01  1.24465201e+01 
 7.60655691e-02  3.43432031e+01  1.27208239e+01 
 7.78196206e-02  3.43551982e+01  1.30005981e+01 
 7.96141200e-02  3.43677169e+01  1.32859134e+01 
 8.14500001e-02  3.43807803e+01  1.35768389e+01 
 8.33282151e-02  3.43944103e+01  1.38734416e+01 
 8.52497412e-02  3.44086296e+01  1.41757864e+01 
 8.72155772e-02  3.44234616e+01  1.44839357e+01 
 8.92267449e-02  3.44389304e+01  1.47979495e+01 
 9.12842895e-02  3.44550608e+01  1.51178845e+01 
 9.33892805e-02  3.44718786e+01  1.54437946e+01 
 9.55428121e-02  3.44894100e+01  1.57757298e+01 
 9.77460036e-02  3.45076823e+01  1.61137367e+01 
 1.00000000e-01  3.45267234e+01  1.64578576e+01 
 1.02305973e-01  3.45465620e+01  1.68081304e+01 
 1.04665121e-01  3.45672275e+01  1.71645884e+01 
 1.07078670e-01  3.45887501e+01  1.75272595e+01 
 1.09547876e-01  3.46111607e+01  1.78961665e+01 
 1.12074020e-01  3.46344911e+01  1.82713263e+01 
 1.14658417e-01  3.46587735e+01  1.86527496e+01 
 1.17302409e-01  3.46840412e+01  1.90404406e+01 
 1.20007371e-01  3.47103279e+01  1.94343966e+01 
 1.22774708e-01  3.47376679e+01  1.98346076e+01 
 1.25605860e-01  3.47660963e+01  2.02410558e+01 
 1.28502297e-01  3.47956487e+01  2.06537156e+01 
 1.31465525e-01  3.48263613e+01  2.10725527e+01 
 1.34497085e-01  3.48582706e+01  2.14975241e+01 
 1.37598551e-01  3.48914140e+01  2.19285775e+01 
 1.40771537e-01  3.49258287e+01  2.23656511e+01 
 1.44017690e-01  3.49615528e+01  2.28086730e+01 
 1.47338699e-01  3.49986244e+01  2.32575611e+01 
 1.50736290e-01  3.50370819e+01  2.37122227e+01 
 1.54212228e-01  3.50769638e+01  2.41725540e+01 
 1.57768320e-01  3.51183087e+01  2.46384399e+01 
 1.61406415e-01  3.51611553e+01  2.51097540e+01 
 1.65128404e-01  3.52055420e+01  2.55863577e+01 
 1.68936220e-01  3.52515072e+01  2.60681008e+01 
 1.72831844e-01  3.52990890e+01  2.65548204e+01 
 1.76817299e-01  3.53483251e+01  2.70463417e+01 
 1.80894658e-01  3.53992527e+01  2.75424770e+01 
 1.85066040e-01  3.54519085e+01  2.80430262e+01 
 1.89333613e-01  3.55063286e+01  2.85477765e+01 
 1.93699595e-01  3.55625481e+01  2.90565024e+01 
 1.98166255e-01  3.56206014e+01  2.95689659e+01 
 2.02735916e-01  3.56805218e+01  3.00849166e+01 
 2.07410951e-01  3.57423416e+01  3.06040916e+01 
 2.12193792e-01  3.58060916e+01  3.11262159e+01 
 2.17086923e-01  3.58718016e+01  3.16510028e+01 
 2.22092889e-01  3.59394996e+01  3.21781537e+01 
 2.27214291e-01  3.60092125e+01  3.27073592e+01 
 2.32453791e-01  3.60809650e+01  3.32382988e+01 
 2.37814113e-01  3.61547804e+01  3.37706419e+01 
 2.43298042e-01  3.62306801e+01  3.43040479e+01 
 2.48908429e-01  3.63086834e+01  3.48381671e+01 
 2.54648190e-01  3.63888077e+01  3.53726413e+01 
 2.60520309e-01  3.64710680e+01  3.59071041e+01 
 2.66527837e-01  3.65554775e+01  3.64411820e+01 
 2.72673897e-01  3.66420468e+01  3.69744950e+01 
 2.78961683e-01  3.67307843e+01  3.75066574e+01 
 2.85394464e-01  3.68216960e+01  3.80372785e+01 
 2.91975583e-01  3.69147855e+01  3.85659633e+01 
 2.98708461e-01  3.70100539e+01  3.90923140e+01 
 3.05596598e-01  3.71074999e+01  3.96159299e+01 
 3.12643573e-01  3.72071195e+01  4.01364091e+01 
 3.19853049e-01  3.73089064e+01  4.06533488e+01 
 3.27228774e-01  3.74128517e+01  4.11663466e+01 
 3.34774581e-01  3.75189440e+01  4.16750010e+01 
 3.42494392e-01  3.76271696e+01  4.21789124e+01 
 3.50392221e-01  3.77375121e+01  4.26776841e+01 
 3.58472171e-01  3.78499529e+01  4.31709226e+01 
 3.66738442e-01  3.79644708e+01  4.36582391e+01 
 3.75195331e-01  3.80810428e+01  4.41392494e+01 
 3.83847234e-01  3.81996431e+01  4.46135755e+01 
 3.92698648e-01  3.83202442e+01  4.50808454e+01 
 4.01754173e-01  3.84428162e+01  4.55406944e+01 
 4.11018515e-01  3.85673273e+01  4.59927654e+01 
 4.20496491e-01  3.86937439e+01  4.64367093e+01 
 4.30193027e-01  3.88220302e+01  4.68721858e+01 
 4.40113162e-01  3.89521492e+01  4.72988634e+01 
 4.50262052e-01  3.90840619e+01  4.77164203e+01 
 4.60644974e-01  3.92177277e+01  4.81245444e+01 
 4.71267322e-01  3.93531047e+01  4.85229336e+01 
 4.82134619e-01  3.94901496e+01  4.89112959e+01 
 4.93252513e-01  3.96288179e+01  4.92893501e+01 
 5.04626783e-01  3.97690639e+01  4.96568253e+01 
 5.16263340e-01  3.99108406e+01  5.00134613e+01 
 5.28168234e-01  4.00541004e+01  5.03590089e+01 
 5.40347650e-01  4.01987946e+01  5.06932293e+01 
 5.52807921e-01  4.03448736e+01  5.10158944e+01 
 5.65555523e-01  4.04922873e+01  5.13267869e+01 
 5.78597080e-01  4.06409848e+01  5.16256999e+01 
 5.91939372e-01  4.07909146e+01  5.19124369e+01 
 6.05589334e-01  4.09420249e+01  5.21868116e+01 
 6.19554061e-01  4.10942631e+01  5.24486480e+01 
 6.33840810e-01  4.12475767e+01  5.26977796e+01 
 6.48457008e-01  4.14019125e+01  5.29340499e+01 
 6.63410251e-01  4.15572172e+01  5.31573117e+01 
 6.78708313e-01  4.17134372e+01  5.33674268e+01 
 6.94359143e-01  4.18705187e+01  5.35642665e+01 
 7.10370877e-01  4.20284080e+01  5.37477103e+01 
 7.26751838e-01  4.21870509e+01  5.39176465e+01 
 7.43510539e-01  4.23463934e+01  5.40739715e+01 
 7.60655691e-01  4.25063814e+01  5.42165901e+01 
 7.78196206e-01  4.26669607e+01  5.43454142e+01 
 7.96141200e-01  4.28280771e+01  5.44603641e+01 
 8.14500001e-01  4.29896765e+01  5.45613668e+01 
 8.33282151e-01  4.31517045e+01  5.46483572e+01 
 8.52497412e-01  4.33141071e+01  5.47212764e+01 
 8.72155772e-01  4.34768301e+01  5.47800730e+01 
 8.92267449e-01  4.36398192e+01  5.48247022e+01 
 9.12842895e-01  4.38030204e+01  5.48551257e+01 
 9.33892805e-01  4.39663796e+01  5.48713117e+01 
 9.55428121e-01  4.41298426e+01  5.48732348e+01 
 9.77460036e-01  4.42933552e+01  5.48608761e+01 
 1.00000000e+00  4.44568635e+01  5.48342230e+01 
 1.02305973e+00  4.46203133e+01  5.47932691e+01 
 1.04665121e+00  4.47836504e+01  5.47380145e+01 
 1.07078670e+00  4.49468208e+01  5.46684654e+01 
 1.09547876e+00  4.51097702e+01  5.45846347e+01 
 1.12074020e+00  4.52724445e+01  5.44865416e+01 
 1.14658417e+00  4.54347895e+01  5.43742118e+01 
 1.17302409e+00  4.55967510e+01  5.42476778e+01 
 1.20007371e+00  4.57582747e+01  5.41069789e+01 
 1.22774708e+00  4.59193064e+01  5.39521613e+01 
 1.25605860e+00  4.60797917e+01  5.37832785e+01 
 1.28502297e+00  4.62396765e+01  5.36003909e+01 
 1.31465525e+00  4.63989064e+01  5.34035670e+01 
 1.34497085e+00  4.65574272e+01  5.31928824e+01 
 1.37598551e+00  4.67151847e+01  5.29684211e+01 
 1.40771537e+00  4.68721249e+01  5.27302749e+01 
 1.44017690e+00  4.70281936e+01  5.24785442e+01 
 1.47338699e+00  4.71833372e+01  5.22133378e+01 
 1.50736290e+00  4.73375017e+01  5.19347735e+01 
 1.54212228e+00  4.74906338e+01  5.16429782e+01 
 1.57768320e+00  4.76426803e+01  5.13380877e+01 
 1.61406415e+00  4.77935882e+01  5.10202478e+01 
 1.65128404e+00  4.79433050e+01  5.06896134e+01 
 1.68936220e+00  4.80917786e+01  5.03463497e+01 
 1.72831844e+00  4.82389575e+01  4.99906318e+01 
 1.76817299e+00  4.83847904e+01  4.96226449e+01 
 1.80894658e+00  4.85292272e+01  4.92425844e+01 
 1.85066040e+00  4.86722180e+01  4.88506563e+01 
 1.89333613e+00  4.88137141e+01  4.84470766e+01 
 1.93699595e+00  4.89536674e+01  4.80320721e+01 
 1.98166255e+00  4.90920309e+01  4.76058799e+01 
 2.02735916e+00  4.92287586e+01  4.71687474e+01 
 2.07410951e+00  4.93638058e+01  4.67209323e+01 
 2.12193792e+00  4.94971290e+01  4.62627022e+01 
 2.17086923e+00  4.96286859e+01  4.57943348e+01 
 2.22092889e+00  4.97584358e+01  4.53161175e+01 
 2.27214291e+00  4.98863396e+01  4.48283466e+01 
 2.32453791e+00  5.00123596e+01  4.43313282e+01 
 2.37814113e+00  5.01364600e+01  4.38253761e+01 
 2.43298042e+00  5.02586069e+01  4.33108131e+01 
 2.48908429e+00  5.03787680e+01  4.27879689e+01 
 2.54648190e+00  5.04969133e+01  4.22571810e+01 
 2.60520309e+00  5.06130147e+01  4.17187928e+01 
 2.66527837e+00  5.07270463e+01  4.11731541e+01 
 2.72673897e+00  5.08389844e+01  4.06206197e+01 
 2.78961683e+00  5.09488076e+01  4.00615486e+01 
 2.85394464e+00  5.10564967e+01  3.94963040e+01 
 2.91975583e+00  5.11620351e+01  3.89252517e+01 
 2.98708461e+00  5.12654083e+01  3.83487595e+01 
 3.05596598e+00  5.13666045e+01  3.77671970e+01 
 3.12643573e+00  5.14656142e+01  3.71809334e+01 
 3.19853049e+00  5.15624304e+01  3.65903383e+01 
 3.27228774e+00  5.16570487e+01  3.59957790e+01 
 3.34774581e+00  5.17494669e+01  3.53976215e+01 
 3.42494392e+00  5.18396854e+01  3.47962280e+01 
 3.50392221e+00  5.19277071e+01  3.41919571e+01 
 3.58472171e+00  5.20135370e+01  3.35851621e+01 
 3.66738442e+00  5.20971828e+01  3.29761911e+01 
 3.75195331e+00  5.21786541e+01  3.23653854e+01 
 3.83847234e+00  5.22579629e+01  3.17530791e+01 
 3.92698648e+00  5.23351234e+01  3.11395983e+01 
 4.01754173e+00  5.24101517e+01  3.05252601e+01 
 4.11018515e+00  5.24830661e+01  2.99103726e+01 
 4.20496491e+00  5.25538865e+01  2.92952334e+01 
 4.30193027e+00  5.26226349e+01  2.86801298e+01 
 4.40113162e+00  5.26893347e+01  2.80653377e+01 
 4.50262052e+00  5.27540110e+01  2.74511214e+01 
 4.60644974e+00  5.28166905e+01  2.68377332e+01 
 4.71267322e+00  5.28774010e+01  2.62254129e+01 
 4.82134619e+00  5.29361719e+01  2.56143876e+01 
 4.93252513e+00  5.29930333e+01  2.50048711e+01 
 5.04626783e+00  5.30480166e+01  2.43970642e+01 
 5.16263340e+00  5.31011542e+01  2.37911541e+01 
 5.28168234e+00  5.31524789e+01  2.31873148e+01 
 5.40347650e+00  5.32020244e+01  2.25857062e+01 
 5.52807921e+00  5.32498251e+01  2.19864751e+01 
 5.65555523e+00  5.32959156e+01  2.13897543e+01 
 5.78597080e+00  5.33403310e+01  2.07956633e+01 
 5.91939372e+00  5.33831064e+01  2.02043082e+01 
 6.05589334e+00  5.34242772e+01  1.96157817e+01 
 6.19554061e+00  5.34638790e+01  1.90301638e+01 
 6.33840810e+00  5.35019470e+01  1.84475211e+01 
 6.48457008e+00  5.35385164e+01  1.78679083e+01 
 6.63410251e+00  5.35736223e+01  1.72913670e+01 
 6.78708313e+00  5.36072992e+01  1.67179274e+01 
 6.94359143e+00  5.36395814e+01  1.61476075e+01 
 7.10370877e+00  5.36705028e+01  1.55804142e+01 
 7.26751838e+00  5.37000964e+01  1.50163432e+01 
 7.43510539e+00  5.37283951e+01  1.44553797e+01 
 7.60655691e+00  5.37554308e+01  1.38974984e+01 
 7.78196206e+00  5.37812347e+01  1.33426639e+01 
 7.96141200e+00  5.38058375e+01  1.27908316e+01 
 8.14500001e+00  5.38292687e+01  1.22419476e+01 
 8.33282151e+00  5.38515572e+01  1.16959490e+01 
 8.52497412e+00  5.38727310e+01  1.11527646e+01 
 8.72155772e+00  5.38928172e+01  1.06123152e+01 
 8.92267449e+00  5.39118417e+01  1.00745141e+01 
 9.12842895e+00  5.39298297e+01  9.53926704e+00 
 9.33892805e+00  5.39468052e+01  9.00647303e+00 
 9.55428121e+00  5.39627913e+01  8.47602459e+00 
 9.77460036e+00  5.39778099e+01  7.94780798e+00 
 1.00000000e+01  5.39918819e+01  7.42170375e+00 
 1.02305973e+01  5.40050271e+01  6.89758691e+00 
 1.04665121e+01  5.40172642e+01  6.37532748e+00 
 1.07078670e+01  5.40286108e+01  5.85479057e+00 
 1.09547876e+01  5.40390833e+01  5.33583703e+00 
 1.12074020e+01  5.40486969e+01  4.81832331e+00 
 1.14658417e+01  5.40574659e+01  4.30210229e+00 
 1.17302409e+01  5.40654033e+01  3.78702318e+00 
 1.20007371e+01  5.40725208e+01  3.27293211e+00 
 1.22774708e+01  5.40788292e+01  2.75967218e+00 
 1.25605860e+01  5.40843379e+01  2.24708401e+00 
 1.28502297e+01  5.40890553e+01  1.73500560e+00 
 1.31465525e+01  5.40929886e+01  1.22327324e+00 
 1.34497085e+01  5.40961436e+01  7.11720998e-01 
 1.37598551e+01  5.40985254e+01  2.00181780e-01 
 1.40771537e+01  5.41001373e+01 -3.11513003e-01 
 1.44017690e+01  5.41009820e+01 -8.23532933e-01 
 1.47338699e+01  5.41010606e+01 -1.33604830e+00 
 1.50736290e+01  5.41003732e+01 -1.84922993e+00 
 1.54212228e+01  5.40989187e+01 -2.36324880e+00 
 1.57768320e+01  5.40966949e+01 -2.87827603e+00 
 1.61406415e+01  5.40936982e+01 -3.39448231e+00 
 1.65128404e+01  5.40899240e+01 -3.91203798e+00 
 1.68936220e+01  5.40853665e+01 -4.43111244e+00 
 1.72831844e+01  5.40800187e+01 -4.95187408e+00 
 1.76817299e+01  5.40738723e+01 -5.47448997e+00 
 1.80894658e+01  5.40669179e+01 -5.99912561e+00 
 1.85066040e+01  5.40591451e+01 -6.52594460e+00 
 1.89333613e+01  5.40505421e+01 -7.05510844e+00 
 1.93699595e+01  5.40410959e+01 -7.58677612e+00 
 1.98166255e+01  5.40307926e+01 -8.12110399e+00 
 2.02735916e+01  5.40196169e+01 -8.65824532e+00 
 2.07410951e+01  5.40075525e+01 -9.19834996e+00 
 2.12193792e+01  5.39945817e+01 -9.74156432e+00 
 2.17086923e+01  5.39806860e+01 -1.02880308e+01 
 2.22092889e+01  5.39658456e+01 -1.08378873e+01 
 2.27214291e+01  5.39500396e+01 -1.13912672e+01 
 2.32453791e+01  5.39332460e+01 -1.19482992e+01 
 2.37814113e+01  5.39154417e+01 -1.25091062e+01 
 2.43298042e+01  5.38966025e+01 -1.30738058e+01 
 2.48908429e+01  5.38767033e+01 -1.36425093e+01 
 2.54648190e+01  5.38557180e+01 -1.42153220e+01 
 2.60520309e+01  5.38336192e+01 -1.47923419e+01 
 2.66527837e+01  5.38103788e+01 -1.53736603e+01 
 2.72673897e+01  5.37859677e+01 -1.59593607e+01 
 2.78961683e+01  5.37603560e+01 -1.65495189e+01 
 2.85394464e+01  5.37335128e+01 -1.71442024e+01 
 2.91975583e+01  5.37054064e+01 -1.77434698e+01 
 2.98708461e+01  5.36760045e+01 -1.83473711e+01 
 3.05596598e+01  5.36452739e+01 -1.89559465e+01 
 3.12643573e+01  5.36131809e+01 -1.95692267e+01 
 3.19853049e+01  5.35796910e+01 -2.01872322e+01 
 3.27228774e+01  5.35447693e+01 -2.08099730e+01 
 3.34774581e+01  5.35083805e+01 -2.14374484e+01 
 3.42494392e+01  5.34704889e+01 -2.20696466e+01 
 3.50392221e+01  5.34310582e+01 -2.27065444e+01 
 3.58472171e+01  5.33900523e+01 -2.33481069e+01 
 3.66738442e+01  5.33474347e+01 -2.39942875e+01 
 3.75195331e+01  5.33031689e+01 -2.46450272e+01 
 3.83847234e+01  5.32572185e+01 -2.53002550e+01 
 3.92698648e+01  5.32095470e+01 -2.59598872e+01 
 4.01754173e+01  5.31601184e+01 -2.66238276e+01 
 4.11018515e+01  5.31088971e+01 -2.72919675e+01 
 4.20496491e+01  5.30558476e+01 -2.79641854e+01 
 4.30193027e+01  5.30009354e+01 -2.86403471e+01 
 4.40113162e+01  5.29441262e+01 -2.93203058e+01 
 4.50262052e+01  5.28853869e+01 -3.00039022e+01 
 4.60644974e+01  5.28246850e+01 -3.06909646e+01 
 4.71267322e+01  5.27619893e+01 -3.13813094e+01 
 4.82134619e+01  5.26972694e+01 -3.20747409e+01 
 4.93252513e+01  5.26304964e+01 -3.27710516e+01 
 5.04626783e+01  5.25616426e+01 -3.34700232e+01 
 5.16263340e+01  5.24906817e+01 -3.41714262e+01 
 5.28168234e+01  5.24175891e+01 -3.48750211e+01 
 5.40347650e+01  5.23423418e+01 -3.55805585e+01 
 5.52807921e+01  5.22649186e+01 -3.62877798e+01 
 5.65555523e+01  5.21852999e+01 -3.69964176e+01 
 5.78597080e+01  5.21034684e+01 -3.77061966e+01 
 5.91939372e+01  5.20194084e+01 -3.84168345e+01 
 6.05589334e+01  5.19331065e+01 -3.91280424e+01 
 6.19554061e+01  5.18445514e+01 -3.98395255e+01 
 6.33840810e+01  5.17537340e+01 -4.05509844e+01 
 6.48457008e+01  5.16606474e+01 -4.12621156e+01 
 6.63410251e+01  5.15652869e+01 -4.19726122e+01 
 6.78708313e+01  5.14676500e+01 -4.26821651e+01 
 6.94359143e+01  5.13677368e+01 -4.33904641e+01 
 7.10370877e+01  5.12655495e+01 -4.40971980e+01 
 7.26751838e+01  5.11610927e+01 -4.48020563e+01 
 7.43510539e+01  5.10543730e+01 -4.55047296e+01 
 7.60655691e+01  5.09453996e+01 -4.62049105e+01 
 7.78196206e+01  5.08341839e+01 -4.69022949e+01 
 7.96141200e+01  5.07207392e+01 -4.75965823e+01 
 8.14500001e+01  5.06050814e+01 -4.82874769e+01 
 8.33282151e+01  5.04872280e+01 -4.89746882e+01 
 8.52497412e+01  5.03671988e+01 -4.96579321e+01 
 8.72155772e+01  5.02450155e+01 -5.03369311e+01 
 8.92267449e+01  5.01207016e+01 -5.10114152e+01 
 9.12842895e+01  4.99942825e+01 -5.16811227e+01 
 9.33892805e+01  4.98657851e+01 -5.23458002e+01 
 9.55428121e+01  4.97352379e+01 -5.30052041e+01 
 9.77460036e+01  4.96026712e+01 -5.36591000e+01 
 1.00000000e+02  4.94681162e+01 -5.43072637e+01 
 1.02305973e+02  4.93316057e+01 -5.49494814e+01 
 1.04665121e+02  4.91931737e+01 -5.55855500e+01 
