 frequency       v(Zin_dm)       v(Zin_dm)      
 1.00000000e-02  2.31641806e+07 -9.64582918e+10 
 1.02305973e-02  2.31630421e+07 -9.42841596e+10 
 1.04665121e-02  2.31618507e+07 -9.21590329e+10 
 1.07078670e-02  2.31606037e+07 -9.00818074e+10 
 1.09547876e-02  2.31592988e+07 -8.80514033e+10 
 1.12074020e-02  2.31579331e+07 -8.60667652e+10 
 1.14658417e-02  2.31565039e+07 -8.41268617e+10 
 1.17302409e-02  2.31550083e+07 -8.22306844e+10 
 1.20007371e-02  2.31534430e+07 -8.03772478e+10 
 1.22774708e-02  2.31518050e+07 -7.85655885e+10 
 1.25605860e-02  2.31500907e+07 -7.67947648e+10 
 1.28502297e-02  2.31482968e+07 -7.50638565e+10 
 1.31465525e-02  2.31464195e+07 -7.33719637e+10 
 1.34497085e-02  2.31444550e+07 -7.17182071e+10 
 1.37598551e-02  2.31423992e+07 -7.01017272e+10 
 1.40771537e-02  2.31402478e+07 -6.85216837e+10 
 1.44017690e-02  2.31379965e+07 -6.69772554e+10 
 1.47338699e-02  2.31356407e+07 -6.54676396e+10 
 1.50736290e-02  2.31331755e+07 -6.39920516e+10 
 1.54212228e-02  2.31305958e+07 -6.25497244e+10 
 1.57768320e-02  2.31278964e+07 -6.11399084e+10 
 1.61406415e-02  2.31250718e+07 -5.97618708e+10 
 1.65128404e-02  2.31221161e+07 -5.84148954e+10 
 1.68936220e-02  2.31190233e+07 -5.70982820e+10 
 1.72831844e-02  2.31157872e+07 -5.58113462e+10 
 1.76817299e-02  2.31124011e+07 -5.45534193e+10 
 1.80894658e-02  2.31088581e+07 -5.33238474e+10 
 1.85066040e-02  2.31051509e+07 -5.21219913e+10 
 1.89333613e-02  2.31012721e+07 -5.09472264e+10 
 1.93699595e-02  2.30972137e+07 -4.97989421e+10 
 1.98166255e-02  2.30929676e+07 -4.86765416e+10 
 2.02735916e-02  2.30885250e+07 -4.75794414e+10 
 2.07410951e-02  2.30838770e+07 -4.65070713e+10 
 2.12193792e-02  2.30790142e+07 -4.54588740e+10 
 2.17086923e-02  2.30739268e+07 -4.44343046e+10 
 2.22092889e-02  2.30686044e+07 -4.34328306e+10 
 2.27214291e-02  2.30630364e+07 -4.24539314e+10 
 2.32453791e-02  2.30572115e+07 -4.14970983e+10 
 2.37814113e-02  2.30511180e+07 -4.05618339e+10 
 2.43298042e-02  2.30447438e+07 -3.96476521e+10 
 2.48908429e-02  2.30380759e+07 -3.87540777e+10 
 2.54648190e-02  2.30311012e+07 -3.78806463e+10 
 2.60520309e-02  2.30238056e+07 -3.70269039e+10 
 2.66527837e-02  2.30161746e+07 -3.61924068e+10 
 2.72673897e-02  2.30081931e+07 -3.53767212e+10 
 2.78961683e-02  2.29998452e+07 -3.45794231e+10 
 2.85394464e-02  2.29911143e+07 -3.38000981e+10 
 2.91975583e-02  2.29819833e+07 -3.30383412e+10 
 2.98708461e-02  2.29724341e+07 -3.22937564e+10 
 3.05596598e-02  2.29624480e+07 -3.15659566e+10 
 3.12643573e-02  2.29520053e+07 -3.08545637e+10 
 3.19853049e-02  2.29410857e+07 -3.01592078e+10 
 3.27228774e-02  2.29296678e+07 -2.94795276e+10 
 3.34774581e-02  2.29177296e+07 -2.88151696e+10 
 3.42494392e-02  2.29052477e+07 -2.81657887e+10 
 3.50392221e-02  2.28921982e+07 -2.75310472e+10 
 3.58472171e-02  2.28785559e+07 -2.69106153e+10 
 3.66738442e-02  2.28642946e+07 -2.63041705e+10 
 3.75195331e-02  2.28493872e+07 -2.57113975e+10 
 3.83847234e-02  2.28338052e+07 -2.51319882e+10 
 3.92698648e-02  2.28175191e+07 -2.45656415e+10 
 4.01754173e-02  2.28004983e+07 -2.40120630e+10 
 4.11018515e-02  2.27827107e+07 -2.34709649e+10 
 4.20496491e-02  2.27641231e+07 -2.29420660e+10 
 4.30193027e-02  2.27447010e+07 -2.24250913e+10 
 4.40113162e-02  2.27244085e+07 -2.19197722e+10 
 4.50262052e-02  2.27032083e+07 -2.14258460e+10 
 4.60644974e-02  2.26810615e+07 -2.09430559e+10 
 4.71267322e-02  2.26579280e+07 -2.04711510e+10 
 4.82134619e-02  2.26337660e+07 -2.00098859e+10 
 4.93252513e-02  2.26085323e+07 -1.95590210e+10 
 5.04626783e-02  2.25821818e+07 -1.91183218e+10 
 5.16263340e-02  2.25546680e+07 -1.86875592e+10 
 5.28168234e-02  2.25259428e+07 -1.82665094e+10 
 5.40347650e-02  2.24959561e+07 -1.78549534e+10 
 5.52807921e-02  2.24646563e+07 -1.74526773e+10 
 5.65555523e-02  2.24319899e+07 -1.70594721e+10 
 5.78597080e-02  2.23979017e+07 -1.66751332e+10 
 5.91939372e-02  2.23623345e+07 -1.62994609e+10 
 6.05589334e-02  2.23252294e+07 -1.59322598e+10 
 6.19554061e-02  2.22865256e+07 -1.55733392e+10 
 6.33840810e-02  2.22461603e+07 -1.52225123e+10 
 6.48457008e-02  2.22040690e+07 -1.48795969e+10 
 6.63410251e-02  2.21601852e+07 -1.45444145e+10 
 6.78708313e-02  2.21144404e+07 -1.42167910e+10 
 6.94359143e-02  2.20667644e+07 -1.38965560e+10 
 7.10370877e-02  2.20170850e+07 -1.35835429e+10 
 7.26751838e-02  2.19653281e+07 -1.32775892e+10 
 7.43510539e-02  2.19114179e+07 -1.29785355e+10 
 7.60655691e-02  2.18552768e+07 -1.26862266e+10 
 7.78196206e-02  2.17968254e+07 -1.24005102e+10 
 7.96141200e-02  2.17359828e+07 -1.21212379e+10 
 8.14500001e-02  2.16726662e+07 -1.18482645e+10 
 8.33282151e-02  2.16067917e+07 -1.15814479e+10 
 8.52497412e-02  2.15382737e+07 -1.13206494e+10 
 8.72155772e-02  2.14670253e+07 -1.10657334e+10 
 8.92267449e-02  2.13929588e+07 -1.08165671e+10 
 9.12842895e-02  2.13159850e+07 -1.05730212e+10 
 9.33892805e-02  2.12360143e+07 -1.03349687e+10 
 9.55428121e-02  2.11529562e+07 -1.01022860e+10 
 9.77460036e-02  2.10667198e+07 -9.87485185e+09 
 1.00000000e-01  2.09772140e+07 -9.65254803e+09 
 1.02305973e-01  2.08843477e+07 -9.43525881e+09 
 1.04665121e-01  2.07880301e+07 -9.22287114e+09 
 1.07078670e-01  2.06881708e+07 -9.01527446e+09 
 1.09547876e-01  2.05846806e+07 -8.81236073e+09 
 1.12074020e-01  2.04774713e+07 -8.61402432e+09 
 1.14658417e-01  2.03664561e+07 -8.42016197e+09 
 1.17302409e-01  2.02515505e+07 -8.23067277e+09 
 1.20007371e-01  2.01326721e+07 -8.04545803e+09 
 1.22774708e-01  2.00097413e+07 -7.86442131e+09 
 1.25605860e-01  1.98826816e+07 -7.68746831e+09 
 1.28502297e-01  1.97514203e+07 -7.51450686e+09 
 1.31465525e-01  1.96158888e+07 -7.34544687e+09 
 1.34497085e-01  1.94760230e+07 -7.18020025e+09 
 1.37598551e-01  1.93317640e+07 -7.01868088e+09 
 1.40771537e-01  1.91830588e+07 -6.86080460e+09 
 1.44017690e-01  1.90298601e+07 -6.70648912e+09 
 1.47338699e-01  1.88721279e+07 -6.55565398e+09 
 1.50736290e-01  1.87098290e+07 -6.40822057e+09 
 1.54212228e-01  1.85429383e+07 -6.26411198e+09 
 1.57768320e-01  1.83714389e+07 -6.12325308e+09 
 1.61406415e-01  1.81953231e+07 -5.98557040e+09 
 1.65128404e-01  1.80145923e+07 -5.85099210e+09 
 1.68936220e-01  1.78292578e+07 -5.71944799e+09 
 1.72831844e-01  1.76393417e+07 -5.59086943e+09 
 1.76817299e-01  1.74448765e+07 -5.46518932e+09 
 1.80894658e-01  1.72459062e+07 -5.34234207e+09 
 1.85066040e-01  1.70424864e+07 -5.22226356e+09 
 1.89333613e-01  1.68346846e+07 -5.10489111e+09 
 1.93699595e-01  1.66225806e+07 -4.99016346e+09 
 1.98166255e-01  1.64062666e+07 -4.87802071e+09 
 2.02735916e-01  1.61858476e+07 -4.76840432e+09 
 2.07410951e-01  1.59614410e+07 -4.66125705e+09 
 2.12193792e-01  1.57331772e+07 -4.55652297e+09 
 2.17086923e-01  1.55011991e+07 -4.45414740e+09 
 2.22092889e-01  1.52656623e+07 -4.35407690e+09 
 2.27214291e-01  1.50267345e+07 -4.25625922e+09 
 2.32453791e-01  1.47845954e+07 -4.16064331e+09 
 2.37814113e-01  1.45394367e+07 -4.06717927e+09 
 2.43298042e-01  1.42914607e+07 -3.97581832e+09 
 2.48908429e-01  1.40408808e+07 -3.88651280e+09 
 2.54648190e-01  1.37879201e+07 -3.79921613e+09 
 2.60520309e-01  1.35328109e+07 -3.71388277e+09 
 2.66527837e-01  1.32757941e+07 -3.63046825e+09 
 2.72673897e-01  1.30171183e+07 -3.54892907e+09 
 2.78961683e-01  1.27570386e+07 -3.46922277e+09 
 2.85394464e-01  1.24958158e+07 -3.39130781e+09 
 2.91975583e-01  1.22337154e+07 -3.31514364e+09 
 2.98708461e-01  1.19710067e+07 -3.24069062e+09 
 3.05596598e-01  1.17079613e+07 -3.16791001e+09 
 3.12643573e-01  1.14448523e+07 -3.09676398e+09 
 3.19853049e-01  1.11819530e+07 -3.02721554e+09 
 3.27228774e-01  1.09195358e+07 -2.95922859e+09 
 3.34774581e-01  1.06578714e+07 -2.89276781e+09 
 3.42494392e-01  1.03972269e+07 -2.82779873e+09 
 3.50392221e-01  1.01378656e+07 -2.76428765e+09 
 3.58472171e-01  9.88004550e+06 -2.70220167e+09 
 3.66738442e-01  9.62401818e+06 -2.64150861e+09 
 3.75195331e-01  9.37002821e+06 -2.58217708e+09 
 3.83847234e-01  9.11831202e+06 -2.52417637e+09 
 3.92698648e-01  8.86909715e+06 -2.46747649e+09 
 4.01754173e-01  8.62260151e+06 -2.41204816e+09 
 4.11018515e-01  8.37903271e+06 -2.35786274e+09 
 4.20496491e-01  8.13858742e+06 -2.30489227e+09 
 4.30193027e-01  7.90145091e+06 -2.25310943e+09 
 4.40113162e-01  7.66779661e+06 -2.20248753e+09 
 4.50262052e-01  7.43778580e+06 -2.15300048e+09 
 4.60644974e-01  7.21156725e+06 -2.10462280e+09 
 4.71267322e-01  6.98927709e+06 -2.05732958e+09 
 4.82134619e-01  6.77103897e+06 -2.01109651e+09 
 4.93252513e-01  6.55696358e+06 -1.96589981e+09 
 5.04626783e-01  6.34714902e+06 -1.92171623e+09 
 5.16263340e-01  6.14168088e+06 -1.87852309e+09 
 5.28168234e-01  5.94063231e+06 -1.83629819e+09 
 5.40347650e-01  5.74406438e+06 -1.79501985e+09 
 5.52807921e-01  5.55202655e+06 -1.75466690e+09 
 5.65555523e-01  5.36455662e+06 -1.71521860e+09 
 5.78597080e-01  5.18168143e+06 -1.67665474e+09 
 5.91939372e-01  5.00341716e+06 -1.63895552e+09 
 6.05589334e-01  4.82976987e+06 -1.60210162e+09 
 6.19554061e-01  4.66073606e+06 -1.56607412e+09 
 6.33840810e-01  4.49630294e+06 -1.53085457e+09 
 6.48457008e-01  4.33644920e+06 -1.49642490e+09 
 6.63410251e-01  4.18114536e+06 -1.46276745e+09 
 6.78708313e-01  4.03035450e+06 -1.42986498e+09 
 6.94359143e-01  3.88403267e+06 -1.39770062e+09 
 7.10370877e-01  3.74212947e+06 -1.36625787e+09 
 7.26751838e-01  3.60458856e+06 -1.33552061e+09 
 7.43510539e-01  3.47134833e+06 -1.30547307e+09 
 7.60655691e-01  3.34234220e+06 -1.27609986e+09 
 7.78196206e-01  3.21749919e+06 -1.24738590e+09 
 7.96141200e-01  3.09674467e+06 -1.21931647e+09 
 8.14500001e-01  2.98000036e+06 -1.19187715e+09 
 8.33282151e-01  2.86718518e+06 -1.16505388e+09 
 8.52497412e-01  2.75821542e+06 -1.13883288e+09 
 8.72155772e-01  2.65300535e+06 -1.11320068e+09 
 8.92267449e-01  2.55146746e+06 -1.08814414e+09 
 9.12842895e-01  2.45351287e+06 -1.06365038e+09 
 9.33892805e-01  2.35905172e+06 -1.03970681e+09 
 9.55428121e-01  2.26799338e+06 -1.01630114e+09 
 9.77460036e-01  2.18024687e+06 -9.93421325e+08 
 1.00000000e+00  2.09572104e+06 -9.71055612e+08 
 1.02305973e+00  2.01432486e+06 -9.49192496e+08 
 1.04665121e+00  1.93596766e+06 -9.27820731e+08 
 1.07078670e+00  1.86055933e+06 -9.06929320e+08 
 1.09547876e+00  1.78801049e+06 -8.86507512e+08 
 1.12074020e+00  1.71823275e+06 -8.66544792e+08 
 1.14658417e+00  1.65113876e+06 -8.47030881e+08 
 1.17302409e+00  1.58664236e+06 -8.27955727e+08 
 1.20007371e+00  1.52465883e+06 -8.09309502e+08 
 1.22774708e+00  1.46510484e+06 -7.91082597e+08 
 1.25605860e+00  1.40789860e+06 -7.73265616e+08 
 1.28502297e+00  1.35296000e+06 -7.55849371e+08 
 1.31465525e+00  1.30021060e+06 -7.38824880e+08 
 1.34497085e+00  1.24957371e+06 -7.22183360e+08 
 1.37598551e+00  1.20097446e+06 -7.05916224e+08 
 1.40771537e+00  1.15433982e+06 -6.90015075e+08 
 1.44017690e+00  1.10959860e+06 -6.74471704e+08 
 1.47338699e+00  1.06668152e+06 -6.59278085e+08 
 1.50736290e+00  1.02552120e+06 -6.44426369e+08 
 1.54212228e+00  9.86052132e+05 -6.29908885e+08 
 1.57768320e+00  9.48210732e+05 -6.15718130e+08 
 1.61406415e+00  9.11935306e+05 -6.01846770e+08 
 1.65128404e+00  8.77166025e+05 -5.88287634e+08 
 1.68936220e+00  8.43844945e+05 -5.75033711e+08 
 1.72831844e+00  8.11915941e+05 -5.62078147e+08 
 1.76817299e+00  7.81324713e+05 -5.49414241e+08 
 1.80894658e+00  7.52018760e+05 -5.37035441e+08 
 1.85066040e+00  7.23947337e+05 -5.24935341e+08 
 1.89333613e+00  6.97061410e+05 -5.13107680e+08 
 1.93699595e+00  6.71313652e+05 -5.01546335e+08 
 1.98166255e+00  6.46658397e+05 -4.90245321e+08 
 2.02735916e+00  6.23051586e+05 -4.79198786e+08 
 2.07410951e+00  6.00450733e+05 -4.68401010e+08 
 2.12193792e+00  5.78814913e+05 -4.57846400e+08 
 2.17086923e+00  5.58104692e+05 -4.47529490e+08 
 2.22092889e+00  5.38282091e+05 -4.37444933e+08 
 2.27214291e+00  5.19310557e+05 -4.27587505e+08 
 2.32453791e+00  5.01154910e+05 -4.17952097e+08 
 2.37814113e+00  4.83781305e+05 -4.08533716e+08 
 2.43298042e+00  4.67157198e+05 -3.99327480e+08 
 2.48908429e+00  4.51251302e+05 -3.90328616e+08 
 2.54648190e+00  4.36033548e+05 -3.81532459e+08 
 2.60520309e+00  4.21475037e+05 -3.72934448e+08 
 2.66527837e+00  4.07548011e+05 -3.64530124e+08 
 2.72673897e+00  3.94225812e+05 -3.56315129e+08 
 2.78961683e+00  3.81482847e+05 -3.48285202e+08 
 2.85394464e+00  3.69294543e+05 -3.40436178e+08 
 2.91975583e+00  3.57637318e+05 -3.32763985e+08 
 2.98708461e+00  3.46488547e+05 -3.25264643e+08 
 3.05596598e+00  3.35826520e+05 -3.17934261e+08 
 3.12643573e+00  3.25630421e+05 -3.10769036e+08 
 3.19853049e+00  3.15880277e+05 -3.03765250e+08 
 3.27228774e+00  3.06556945e+05 -2.96919267e+08 
 3.34774581e+00  2.97642068e+05 -2.90227536e+08 
 3.42494392e+00  2.89118050e+05 -2.83686582e+08 
 3.50392221e+00  2.80968034e+05 -2.77293011e+08 
 3.58472171e+00  2.73175857e+05 -2.71043504e+08 
 3.66738442e+00  2.65726040e+05 -2.64934817e+08 
 3.75195331e+00  2.58603748e+05 -2.58963779e+08 
 3.83847234e+00  2.51794774e+05 -2.53127289e+08 
 3.92698648e+00  2.45285512e+05 -2.47422319e+08 
 4.01754173e+00  2.39062925e+05 -2.41845904e+08 
 4.11018515e+00  2.33114539e+05 -2.36395151e+08 
 4.20496491e+00  2.27428401e+05 -2.31067228e+08 
 4.30193027e+00  2.21993074e+05 -2.25859369e+08 
 4.40113162e+00  2.16797605e+05 -2.20768869e+08 
 4.50262052e+00  2.11831511e+05 -2.15793085e+08 
 4.60644974e+00  2.07084760e+05 -2.10929433e+08 
 4.71267322e+00  2.02547748e+05 -2.06175387e+08 
 4.82134619e+00  1.98211284e+05 -2.01528478e+08 
 4.93252513e+00  1.94066578e+05 -1.96986291e+08 
 5.04626783e+00  1.90105211e+05 -1.92546468e+08 
 5.16263340e+00  1.86319136e+05 -1.88206703e+08 
 5.28168234e+00  1.82700647e+05 -1.83964741e+08 
 5.40347650e+00  1.79242379e+05 -1.79818378e+08 
 5.52807921e+00  1.75937281e+05 -1.75765462e+08 
 5.65555523e+00  1.72778609e+05 -1.71803886e+08 
 5.78597080e+00  1.69759915e+05 -1.67931593e+08 
 5.91939372e+00  1.66875031e+05 -1.64146571e+08 
 6.05589334e+00  1.64118056e+05 -1.60446852e+08 
 6.19554061e+00  1.61483347e+05 -1.56830517e+08 
 6.33840810e+00  1.58965510e+05 -1.53295684e+08 
 6.48457008e+00  1.56559382e+05 -1.49840519e+08 
 6.63410251e+00  1.54260030e+05 -1.46463225e+08 
 6.78708313e+00  1.52062736e+05 -1.43162049e+08 
 6.94359143e+00  1.49962988e+05 -1.39935274e+08 
 7.10370877e+00  1.47956472e+05 -1.36781225e+08 
 7.26751838e+00  1.46039064e+05 -1.33698261e+08 
 7.43510539e+00  1.44206819e+05 -1.30684783e+08 
 7.60655691e+00  1.42455969e+05 -1.27739223e+08 
 7.78196206e+00  1.40782910e+05 -1.24860052e+08 
 7.96141200e+00  1.39184195e+05 -1.22045772e+08 
 8.14500001e+00  1.37656530e+05 -1.19294922e+08 
 8.33282151e+00  1.36196767e+05 -1.16606072e+08 
 8.52497412e+00  1.34801896e+05 -1.13977826e+08 
 8.72155772e+00  1.33469039e+05 -1.11408816e+08 
 8.92267449e+00  1.32195447e+05 -1.08897709e+08 
 9.12842895e+00  1.30978488e+05 -1.06443200e+08 
 9.33892805e+00  1.29815652e+05 -1.04044012e+08 
 9.55428121e+00  1.28704537e+05 -1.01698899e+08 
 9.77460036e+00  1.27642846e+05 -9.94066425e+07 
 1.00000000e+01  1.26628385e+05 -9.71660513e+07 
 1.02305973e+01  1.25659057e+05 -9.49759609e+07 
 1.04665121e+01  1.24732857e+05 -9.28352331e+07 
 1.07078670e+01  1.23847871e+05 -9.07427554e+07 
 1.09547876e+01  1.23002267e+05 -8.86974404e+07 
 1.12074020e+01  1.22194295e+05 -8.66982252e+07 
 1.14658417e+01  1.21422283e+05 -8.47440707e+07 
 1.17302409e+01  1.20684633e+05 -8.28339614e+07 
 1.20007371e+01  1.19979817e+05 -8.09669047e+07 
 1.22774708e+01  1.19306375e+05 -7.91419301e+07 
 1.25605860e+01  1.18662914e+05 -7.73580893e+07 
 1.28502297e+01  1.18048100e+05 -7.56144552e+07 
 1.31465525e+01  1.17460658e+05 -7.39101215e+07 
 1.34497085e+01  1.16899371e+05 -7.22442025e+07 
 1.37598551e+01  1.16363077e+05 -7.06158325e+07 
 1.40771537e+01  1.15850663e+05 -6.90241650e+07 
 1.44017690e+01  1.15361067e+05 -6.74683729e+07 
 1.47338699e+01  1.14893274e+05 -6.59476476e+07 
 1.50736290e+01  1.14446313e+05 -6.44611988e+07 
 1.54212228e+01  1.14019259e+05 -6.30082539e+07 
 1.57768320e+01  1.13611224e+05 -6.15880577e+07 
 1.61406415e+01  1.13221362e+05 -6.01998721e+07 
 1.65128404e+01  1.12848865e+05 -5.88429757e+07 
 1.68936220e+01  1.12492960e+05 -5.75166633e+07 
 1.72831844e+01  1.12152908e+05 -5.62202454e+07 
 1.76817299e+01  1.11828003e+05 -5.49530484e+07 
 1.80894658e+01  1.11517571e+05 -5.37144135e+07 
 1.85066040e+01  1.11220968e+05 -5.25036971e+07 
 1.89333613e+01  1.10937578e+05 -5.13202698e+07 
 1.93699595e+01  1.10666813e+05 -5.01635166e+07 
 1.98166255e+01  1.10408110e+05 -4.90328363e+07 
 2.02735916e+01  1.10160933e+05 -4.79276413e+07 
 2.07410951e+01  1.09924768e+05 -4.68473570e+07 
 2.12193792e+01  1.09699125e+05 -4.57914221e+07 
 2.17086923e+01  1.09483535e+05 -4.47592876e+07 
 2.22092889e+01  1.09277550e+05 -4.37504173e+07 
 2.27214291e+01  1.09080743e+05 -4.27642866e+07 
 2.32453791e+01  1.08892705e+05 -4.18003831e+07 
 2.37814113e+01  1.08713046e+05 -4.08582058e+07 
 2.43298042e+01  1.08541391e+05 -3.99372649e+07 
 2.48908429e+01  1.08377385e+05 -3.90370819e+07 
 2.54648190e+01  1.08220687e+05 -3.81571888e+07 
 2.60520309e+01  1.08070972e+05 -3.72971283e+07 
 2.66527837e+01  1.07927927e+05 -3.64564535e+07 
 2.72673897e+01  1.07791257e+05 -3.56347273e+07 
 2.78961683e+01  1.07660677e+05 -3.48315226e+07 
 2.85394464e+01  1.07535915e+05 -3.40464221e+07 
 2.91975583e+01  1.07416713e+05 -3.32790176e+07 
 2.98708461e+01  1.07302824e+05 -3.25289103e+07 
 3.05596598e+01  1.07194009e+05 -3.17957102e+07 
 3.12643573e+01  1.07090043e+05 -3.10790364e+07 
 3.19853049e+01  1.06990711e+05 -3.03785163e+07 
 3.27228774e+01  1.06895805e+05 -2.96937858e+07 
 3.34774581e+01  1.06805128e+05 -2.90244891e+07 
 3.42494392e+01  1.06718493e+05 -2.83702782e+07 
 3.50392221e+01  1.06635718e+05 -2.77308131e+07 
 3.58472171e+01  1.06556632e+05 -2.71057615e+07 
 3.66738442e+01  1.06481071e+05 -2.64947984e+07 
 3.75195331e+01  1.06408877e+05 -2.58976064e+07 
 3.83847234e+01  1.06339900e+05 -2.53138750e+07 
 3.92698648e+01  1.06273998e+05 -2.47433009e+07 
 4.01754173e+01  1.06211032e+05 -2.41855874e+07 
 4.11018515e+01  1.06150873e+05 -2.36404447e+07 
 4.20496491e+01  1.06093395e+05 -2.31075894e+07 
 4.30193027e+01  1.06038478e+05 -2.25867447e+07 
 4.40113162e+01  1.05986009e+05 -2.20776397e+07 
 4.50262052e+01  1.05935878e+05 -2.15800098e+07 
 4.60644974e+01  1.05887982e+05 -2.10935965e+07 
 4.71267322e+01  1.05842220e+05 -2.06181469e+07 
 4.82134619e+01  1.05798497e+05 -2.01534139e+07 
 4.93252513e+01  1.05756723e+05 -1.96991559e+07 
 5.04626783e+01  1.05716811e+05 -1.92551368e+07 
 5.16263340e+01  1.05678678e+05 -1.88211258e+07 
 5.28168234e+01  1.05642244e+05 -1.83968974e+07 
 5.40347650e+01  1.05607434e+05 -1.79822310e+07 
 5.52807921e+01  1.05574176e+05 -1.75769112e+07 
 5.65555523e+01  1.05542399e+05 -1.71807272e+07 
 5.78597080e+01  1.05512039e+05 -1.67934732e+07 
 5.91939372e+01  1.05483032e+05 -1.64149478e+07 
 6.05589334e+01  1.05455318e+05 -1.60449543e+07 
 6.19554061e+01  1.05428839e+05 -1.56833004e+07 
 6.33840810e+01  1.05403540e+05 -1.53297981e+07 
 6.48457008e+01  1.05379368e+05 -1.49842638e+07 
 6.63410251e+01  1.05356274e+05 -1.46465177e+07 
 6.78708313e+01  1.05334209e+05 -1.43163844e+07 
 6.94359143e+01  1.05313128e+05 -1.39936922e+07 
 7.10370877e+01  1.05292986e+05 -1.36782735e+07 
 7.26751838e+01  1.05273741e+05 -1.33699642e+07 
 7.43510539e+01  1.05255354e+05 -1.30686042e+07 
 7.60655691e+01  1.05237787e+05 -1.27740368e+07 
 7.78196206e+01  1.05221003e+05 -1.24861088e+07 
 7.96141200e+01  1.05204966e+05 -1.22046708e+07 
 8.14500001e+01  1.05189645e+05 -1.19295762e+07 
 8.33282151e+01  1.05175006e+05 -1.16606823e+07 
 8.52497412e+01  1.05161019e+05 -1.13978492e+07 
 8.72155772e+01  1.05147656e+05 -1.11409403e+07 
 8.92267449e+01  1.05134888e+05 -1.08898220e+07 
 9.12842895e+01  1.05122690e+05 -1.06443639e+07 
 9.33892805e+01  1.05111034e+05 -1.04044384e+07 
 9.55428121e+01  1.05099899e+05 -1.01699207e+07 
 9.77460036e+01  1.05089259e+05 -9.94068903e+06 
 1.00000000e+02  1.05079093e+05 -9.71662416e+06 
 1.02305973e+02  1.05069381e+05 -9.49760966e+06 
 1.04665121e+02  1.05060101e+05 -9.28353168e+06 
