 frequency       v(Zin_dm)       v(Zin_dm)      
 1.00000000e-02  2.31644463e+07 -4.82295212e+10 
 1.02305973e-02  2.31633078e+07 -4.71424637e+10 
 1.04665121e-02  2.31621163e+07 -4.60799092e+10 
 1.07078670e-02  2.31608694e+07 -4.50413055e+10 
 1.09547876e-02  2.31595644e+07 -4.40261127e+10 
 1.12074020e-02  2.31581987e+07 -4.30338031e+10 
 1.14658417e-02  2.31567695e+07 -4.20638610e+10 
 1.17302409e-02  2.31552738e+07 -4.11157823e+10 
 1.20007371e-02  2.31537086e+07 -4.01890741e+10 
 1.22774708e-02  2.31520705e+07 -3.92832548e+10 
 1.25605860e-02  2.31503563e+07 -3.83978535e+10 
 1.28502297e-02  2.31485624e+07 -3.75324102e+10 
 1.31465525e-02  2.31466850e+07 -3.66864748e+10 
 1.34497085e-02  2.31447205e+07 -3.58596079e+10 
 1.37598551e-02  2.31426646e+07 -3.50513795e+10 
 1.40771537e-02  2.31405133e+07 -3.42613696e+10 
 1.44017690e-02  2.31382620e+07 -3.34891676e+10 
 1.47338699e-02  2.31359061e+07 -3.27343721e+10 
 1.50736290e-02  2.31334408e+07 -3.19965907e+10 
 1.54212228e-02  2.31308612e+07 -3.12754401e+10 
 1.57768320e-02  2.31281617e+07 -3.05705454e+10 
 1.61406415e-02  2.31253371e+07 -2.98815401e+10 
 1.65128404e-02  2.31223814e+07 -2.92080663e+10 
 1.68936220e-02  2.31192886e+07 -2.85497737e+10 
 1.72831844e-02  2.31160524e+07 -2.79063204e+10 
 1.76817299e-02  2.31126663e+07 -2.72773718e+10 
 1.80894658e-02  2.31091232e+07 -2.66626009e+10 
 1.85066040e-02  2.31054160e+07 -2.60616884e+10 
 1.89333613e-02  2.31015372e+07 -2.54743218e+10 
 1.93699595e-02  2.30974788e+07 -2.49001959e+10 
 1.98166255e-02  2.30932326e+07 -2.43390122e+10 
 2.02735916e-02  2.30887900e+07 -2.37904790e+10 
 2.07410951e-02  2.30841420e+07 -2.32543113e+10 
 2.12193792e-02  2.30792791e+07 -2.27302304e+10 
 2.17086923e-02  2.30741916e+07 -2.22179638e+10 
 2.22092889e-02  2.30688692e+07 -2.17172453e+10 
 2.27214291e-02  2.30633011e+07 -2.12278147e+10 
 2.32453791e-02  2.30574762e+07 -2.07494175e+10 
 2.37814113e-02  2.30513827e+07 -2.02818051e+10 
 2.43298042e-02  2.30450083e+07 -1.98247344e+10 
 2.48908429e-02  2.30383404e+07 -1.93779679e+10 
 2.54648190e-02  2.30313656e+07 -1.89412733e+10 
 2.60520309e-02  2.30240699e+07 -1.85144237e+10 
 2.66527837e-02  2.30164389e+07 -1.80971973e+10 
 2.72673897e-02  2.30084573e+07 -1.76893770e+10 
 2.78961683e-02  2.30001093e+07 -1.72907510e+10 
 2.85394464e-02  2.29913784e+07 -1.69011121e+10 
 2.91975583e-02  2.29822473e+07 -1.65202577e+10 
 2.98708461e-02  2.29726980e+07 -1.61479899e+10 
 3.05596598e-02  2.29627118e+07 -1.57841152e+10 
 3.12643573e-02  2.29522690e+07 -1.54284444e+10 
 3.19853049e-02  2.29413493e+07 -1.50807927e+10 
 3.27228774e-02  2.29299314e+07 -1.47409794e+10 
 3.34774581e-02  2.29179930e+07 -1.44088278e+10 
 3.42494392e-02  2.29055110e+07 -1.40841653e+10 
 3.50392221e-02  2.28924614e+07 -1.37668231e+10 
 3.58472171e-02  2.28788189e+07 -1.34566363e+10 
 3.66738442e-02  2.28645575e+07 -1.31534437e+10 
 3.75195331e-02  2.28496500e+07 -1.28570876e+10 
 3.83847234e-02  2.28340678e+07 -1.25674140e+10 
 3.92698648e-02  2.28177816e+07 -1.22842724e+10 
 4.01754173e-02  2.28007606e+07 -1.20075155e+10 
 4.11018515e-02  2.27829729e+07 -1.17369995e+10 
 4.20496491e-02  2.27643851e+07 -1.14725837e+10 
 4.30193027e-02  2.27449629e+07 -1.12141308e+10 
 4.40113162e-02  2.27246702e+07 -1.09615063e+10 
 4.50262052e-02  2.27034697e+07 -1.07145790e+10 
 4.60644974e-02  2.26813227e+07 -1.04732205e+10 
 4.71267322e-02  2.26581890e+07 -1.02373053e+10 
 4.82134619e-02  2.26340269e+07 -1.00067108e+10 
 4.93252513e-02  2.26087929e+07 -9.78131704e+09 
 5.04626783e-02  2.25824421e+07 -9.56100693e+09 
 5.16263340e-02  2.25549281e+07 -9.34566590e+09 
 5.28168234e-02  2.25262026e+07 -9.13518202e+09 
 5.40347650e-02  2.24962157e+07 -8.92944583e+09 
 5.52807921e-02  2.24649156e+07 -8.72835039e+09 
 5.65555523e-02  2.24322489e+07 -8.53179114e+09 
 5.78597080e-02  2.23981603e+07 -8.33966587e+09 
 5.91939372e-02  2.23625928e+07 -8.15187470e+09 
 6.05589334e-02  2.23254873e+07 -7.96831998e+09 
 6.19554061e-02  2.22867832e+07 -7.78890625e+09 
 6.33840810e-02  2.22464175e+07 -7.61354024e+09 
 6.48457008e-02  2.22043259e+07 -7.44213073e+09 
 6.63410251e-02  2.21604417e+07 -7.27458859e+09 
 6.78708313e-02  2.21146965e+07 -7.11082670e+09 
 6.94359143e-02  2.20670200e+07 -6.95075986e+09 
 7.10370877e-02  2.20173401e+07 -6.79430484e+09 
 7.26751838e-02  2.19655827e+07 -6.64138025e+09 
 7.43510539e-02  2.19116720e+07 -6.49190653e+09 
 7.60655691e-02  2.18555304e+07 -6.34580594e+09 
 7.78196206e-02  2.17970785e+07 -6.20300246e+09 
 7.96141200e-02  2.17362353e+07 -6.06342180e+09 
 8.14500001e-02  2.16729181e+07 -5.92699131e+09 
 8.33282151e-02  2.16070430e+07 -5.79364001e+09 
 8.52497412e-02  2.15385243e+07 -5.66329850e+09 
 8.72155772e-02  2.14672753e+07 -5.53589894e+09 
 8.92267449e-02  2.13932080e+07 -5.41137500e+09 
 9.12842895e-02  2.13162336e+07 -5.28966186e+09 
 9.33892805e-02  2.12362621e+07 -5.17069615e+09 
 9.55428121e-02  2.11532032e+07 -5.05441592e+09 
 9.77460036e-02  2.10669660e+07 -4.94076062e+09 
 1.00000000e-01  2.09774593e+07 -4.82967103e+09 
 1.02305973e-01  2.08845921e+07 -4.72108930e+09 
 1.04665121e-01  2.07882736e+07 -4.61495884e+09 
 1.07078670e-01  2.06884134e+07 -4.51122434e+09 
 1.09547876e-01  2.05849222e+07 -4.40983174e+09 
 1.12074020e-01  2.04777118e+07 -4.31072818e+09 
 1.14658417e-01  2.03666956e+07 -4.21386199e+09 
 1.17302409e-01  2.02517889e+07 -4.11918263e+09 
 1.20007371e-01  2.01329094e+07 -4.02664074e+09 
 1.22774708e-01  2.00099773e+07 -3.93618802e+09 
 1.25605860e-01  1.98829164e+07 -3.84777726e+09 
 1.28502297e-01  1.97516538e+07 -3.76136232e+09 
 1.31465525e-01  1.96161209e+07 -3.67689808e+09 
 1.34497085e-01  1.94762537e+07 -3.59434041e+09 
 1.37598551e-01  1.93319934e+07 -3.51364620e+09 
 1.40771537e-01  1.91832866e+07 -3.43477328e+09 
 1.44017690e-01  1.90300864e+07 -3.35768043e+09 
 1.47338699e-01  1.88723525e+07 -3.28232733e+09 
 1.50736290e-01  1.87100520e+07 -3.20867458e+09 
 1.54212228e-01  1.85431596e+07 -3.13668365e+09 
 1.57768320e-01  1.83716585e+07 -3.06631688e+09 
 1.61406415e-01  1.81955409e+07 -2.99753743e+09 
 1.65128404e-01  1.80148082e+07 -2.93030930e+09 
 1.68936220e-01  1.78294719e+07 -2.86459728e+09 
 1.72831844e-01  1.76395539e+07 -2.80036695e+09 
 1.76817299e-01  1.74450867e+07 -2.73758467e+09 
 1.80894658e-01  1.72461143e+07 -2.67621753e+09 
 1.85066040e-01  1.70426924e+07 -2.61623338e+09 
 1.89333613e-01  1.68348884e+07 -2.55760077e+09 
 1.93699595e-01  1.66227822e+07 -2.50028895e+09 
 1.98166255e-01  1.64064660e+07 -2.44426789e+09 
 2.02735916e-01  1.61860446e+07 -2.38950820e+09 
 2.07410951e-01  1.59616357e+07 -2.33598117e+09 
 2.12193792e-01  1.57333695e+07 -2.28365873e+09 
 2.17086923e-01  1.55013889e+07 -2.23251344e+09 
 2.22092889e-01  1.52658495e+07 -2.18251849e+09 
 2.27214291e-01  1.50269191e+07 -2.13364767e+09 
 2.32453791e-01  1.47847775e+07 -2.08587535e+09 
 2.37814113e-01  1.45396160e+07 -2.03917651e+09 
 2.43298042e-01  1.42916374e+07 -1.99352668e+09 
 2.48908429e-01  1.40410547e+07 -1.94890195e+09 
 2.54648190e-01  1.37880912e+07 -1.90527896e+09 
 2.60520309e-01  1.35329793e+07 -1.86263488e+09 
 2.66527837e-01  1.32759597e+07 -1.82094742e+09 
 2.72673897e-01  1.30172810e+07 -1.78019478e+09 
 2.78961683e-01  1.27571983e+07 -1.74035569e+09 
 2.85394464e-01  1.24959725e+07 -1.70140934e+09 
 2.91975583e-01  1.22338692e+07 -1.66333542e+09 
 2.98708461e-01  1.19711575e+07 -1.62611410e+09 
 3.05596598e-01  1.17081091e+07 -1.58972599e+09 
 3.12643573e-01  1.14449970e+07 -1.55415218e+09 
 3.19853049e-01  1.11820947e+07 -1.51937416e+09 
 3.27228774e-01  1.09196745e+07 -1.48537390e+09 
 3.34774581e-01  1.06580070e+07 -1.45213376e+09 
 3.42494392e-01  1.03973595e+07 -1.41963652e+09 
 3.50392221e-01  1.01379952e+07 -1.38786537e+09 
 3.58472171e-01  9.88017203e+06 -1.35680390e+09 
 3.66738442e-01  9.62414167e+06 -1.32643607e+09 
 3.75195331e-01  9.37014866e+06 -1.29674622e+09 
 3.83847234e-01  9.11842944e+06 -1.26771908e+09 
 3.92698648e-01  8.86921157e+06 -1.23933971e+09 
 4.01754173e-01  8.62271295e+06 -1.21159353e+09 
 4.11018515e-01  8.37914106e+06 -1.18446632e+09 
 4.20496491e-01  8.13869283e+06 -1.15794417e+09 
 4.30193027e-01  7.90155342e+06 -1.13201350e+09 
 4.40113162e-01  7.66789630e+06 -1.10666106e+09 
 4.50262052e-01  7.43788263e+06 -1.08187390e+09 
 4.60644974e-01  7.21166127e+06 -1.05763938e+09 
 4.71267322e-01  6.98936843e+06 -1.03394514e+09 
 4.82134619e-01  6.77112760e+06 -1.01077912e+09 
 4.93252513e-01  6.55704946e+06 -9.88129532e+08 
 5.04626783e-01  6.34723231e+06 -9.65984867e+08 
 5.16263340e-01  6.14176155e+06 -9.44333876e+08 
 5.28168234e-01  5.94071043e+06 -9.23165570e+08 
 5.40347650e-01  5.74414008e+06 -9.02469214e+08 
 5.52807921e-01  5.55209979e+06 -8.82234316e+08 
 5.65555523e-01  5.36462745e+06 -8.62450625e+08 
 5.78597080e-01  5.18174989e+06 -8.43108123e+08 
 5.91939372e-01  5.00348336e+06 -8.24197018e+08 
 6.05589334e-01  4.82983388e+06 -8.05707741e+08 
 6.19554061e-01  4.66079788e+06 -7.87630938e+08 
 6.33840810e-01  4.49636261e+06 -7.69957467e+08 
 6.48457008e-01  4.33650677e+06 -7.52678388e+08 
 6.63410251e-01  4.18120093e+06 -7.35784966e+08 
 6.78708313e-01  4.03040812e+06 -7.19268656e+08 
 6.94359143e-01  3.88408437e+06 -7.03121108e+08 
 7.10370877e-01  3.74217931e+06 -6.87334155e+08 
 7.26751838e-01  3.60463662e+06 -6.71899811e+08 
 7.43510539e-01  3.47139462e+06 -6.56810270e+08 
 7.60655691e-01  3.34238678e+06 -6.42057895e+08 
 7.78196206e-01  3.21754218e+06 -6.27635220e+08 
 7.96141200e-01  3.09678601e+06 -6.13534943e+08 
 8.14500001e-01  2.98004016e+06 -5.99749923e+08 
 8.33282151e-01  2.86722343e+06 -5.86273175e+08 
 8.52497412e-01  2.75825225e+06 -5.73097870e+08 
 8.72155772e-01  2.65304075e+06 -5.60217325e+08 
 8.92267449e-01  2.55150151e+06 -5.47625008e+08 
 9.12842895e-01  2.45354561e+06 -5.35314528e+08 
 9.33892805e-01  2.35908320e+06 -5.23279633e+08 
 9.55428121e-01  2.26802364e+06 -5.11514209e+08 
 9.77460036e-01  2.18027597e+06 -5.00012277e+08 
 1.00000000e+00  2.09574897e+06 -4.88767986e+08 
 1.02305973e+00  2.01435170e+06 -4.77775617e+08 
 1.04665121e+00  1.93599344e+06 -4.67029572e+08 
 1.07078670e+00  1.86058407e+06 -4.56524378e+08 
 1.09547876e+00  1.78803427e+06 -4.46254681e+08 
 1.12074020e+00  1.71825559e+06 -4.36215244e+08 
 1.14658417e+00  1.65116069e+06 -4.26400946e+08 
 1.17302409e+00  1.58666343e+06 -4.16806776e+08 
 1.20007371e+00  1.52467906e+06 -4.07427834e+08 
 1.22774708e+00  1.46512424e+06 -3.98259328e+08 
 1.25605860e+00  1.40791724e+06 -3.89296569e+08 
 1.28502297e+00  1.35297788e+06 -3.80534973e+08 
 1.31465525e+00  1.30022777e+06 -3.71970056e+08 
 1.34497085e+00  1.24959019e+06 -3.63597431e+08 
 1.37598551e+00  1.20099028e+06 -3.55412809e+08 
 1.40771537e+00  1.15435499e+06 -3.47411994e+08 
 1.44017690e+00  1.10961317e+06 -3.39590885e+08 
 1.47338699e+00  1.06669550e+06 -3.31945467e+08 
 1.50736290e+00  1.02553461e+06 -3.24471817e+08 
 1.54212228e+00  9.86064996e+05 -3.17166097e+08 
 1.57768320e+00  9.48223089e+05 -3.10024554e+08 
 1.61406415e+00  9.11947160e+05 -3.03043516e+08 
 1.65128404e+00  8.77177409e+05 -2.96219395e+08 
 1.68936220e+00  8.43855867e+05 -2.89548680e+08 
 1.72831844e+00  8.11926427e+05 -2.83027939e+08 
 1.76817299e+00  7.81334779e+05 -2.76653815e+08 
 1.80894658e+00  7.52028428e+05 -2.70423025e+08 
 1.85066040e+00  7.23956613e+05 -2.64332359e+08 
 1.89333613e+00  6.97070312e+05 -2.58378680e+08 
 1.93699595e+00  6.71322207e+05 -2.52558918e+08 
 1.98166255e+00  6.46666609e+05 -2.46870071e+08 
 2.02735916e+00  6.23059472e+05 -2.41309206e+08 
 2.07410951e+00  6.00458311e+05 -2.35873453e+08 
 2.12193792e+00  5.78822196e+05 -2.30560006e+08 
 2.17086923e+00  5.58111684e+05 -2.25366122e+08 
 2.22092889e+00  5.38288815e+05 -2.20289120e+08 
 2.27214291e+00  5.19317014e+05 -2.15326376e+08 
 2.32453791e+00  5.01161118e+05 -2.10475327e+08 
 2.37814113e+00  4.83787268e+05 -2.05733465e+08 
 2.43298042e+00  4.67162937e+05 -2.01098339e+08 
 2.48908429e+00  4.51256824e+05 -1.96567553e+08 
 2.54648190e+00  4.36038854e+05 -1.92138763e+08 
 2.60520309e+00  4.21480144e+05 -1.87809679e+08 
 2.66527837e+00  4.07552928e+05 -1.83578061e+08 
 2.72673897e+00  3.94230544e+05 -1.79441719e+08 
 2.78961683e+00  3.81487400e+05 -1.75398513e+08 
 2.85394464e+00  3.69298926e+05 -1.71446348e+08 
 2.91975583e+00  3.57641543e+05 -1.67583180e+08 
 2.98708461e+00  3.46492617e+05 -1.63807008e+08 
 3.05596598e+00  3.35830444e+05 -1.60115876e+08 
 3.12643573e+00  3.25634203e+05 -1.56507871e+08 
 3.19853049e+00  3.15883925e+05 -1.52981126e+08 
 3.27228774e+00  3.06560463e+05 -1.49533812e+08 
 3.34774581e+00  2.97645463e+05 -1.46164144e+08 
 3.42494392e+00  2.89121329e+05 -1.42870373e+08 
 3.50392221e+00  2.80971197e+05 -1.39650795e+08 
 3.58472171e+00  2.73178914e+05 -1.36503739e+08 
 3.66738442e+00  2.65728991e+05 -1.33427573e+08 
 3.75195331e+00  2.58606604e+05 -1.30420704e+08 
 3.83847234e+00  2.51797535e+05 -1.27481571e+08 
 3.92698648e+00  2.45288180e+05 -1.24608650e+08 
 4.01754173e+00  2.39065510e+05 -1.21800451e+08 
 4.11018515e+00  2.33117040e+05 -1.19055518e+08 
 4.20496491e+00  2.27430825e+05 -1.16372426e+08 
 4.30193027e+00  2.21995422e+05 -1.13749784e+08 
 4.40113162e+00  2.16799881e+05 -1.11186230e+08 
 4.50262052e+00  2.11833719e+05 -1.08680435e+08 
 4.60644974e+00  2.07086901e+05 -1.06231099e+08 
 4.71267322e+00  2.02549826e+05 -1.03836949e+08 
 4.82134619e+00  1.98213302e+05 -1.01496744e+08 
 4.93252513e+00  1.94068538e+05 -9.92092692e+07 
 5.04626783e+00  1.90107117e+05 -9.69733369e+07 
 5.16263340e+00  1.86320988e+05 -9.47877865e+07 
 5.28168234e+00  1.82702450e+05 -9.26514836e+07 
 5.40347650e+00  1.79244134e+05 -9.05633189e+07 
 5.52807921e+00  1.75938990e+05 -8.85222085e+07 
 5.65555523e+00  1.72780274e+05 -8.65270926e+07 
 5.78597080e+00  1.69761540e+05 -8.45769352e+07 
 5.91939372e+00  1.66876615e+05 -8.26707237e+07 
 6.05589334e+00  1.64119602e+05 -8.08074682e+07 
 6.19554061e+00  1.61484857e+05 -7.89862013e+07 
 6.33840810e+00  1.58966984e+05 -7.72059771e+07 
 6.48457008e+00  1.56560823e+05 -7.54658709e+07 
 6.63410251e+00  1.54261439e+05 -7.37649792e+07 
 6.78708313e+00  1.52064115e+05 -7.21024186e+07 
 6.94359143e+00  1.49964337e+05 -7.04773254e+07 
 7.10370877e+00  1.47957794e+05 -6.88888556e+07 
 7.26751838e+00  1.46040358e+05 -6.73361842e+07 
 7.43510539e+00  1.44208089e+05 -6.58185045e+07 
 7.60655691e+00  1.42457215e+05 -6.43350283e+07 
 7.78196206e+00  1.40784132e+05 -6.28849850e+07 
 7.96141200e+00  1.39185395e+05 -6.14676212e+07 
 8.14500001e+00  1.37657709e+05 -6.00822006e+07 
 8.33282151e+00  1.36197926e+05 -5.87280036e+07 
 8.52497412e+00  1.34803035e+05 -5.74043266e+07 
 8.72155772e+00  1.33470160e+05 -5.61104819e+07 
 8.92267449e+00  1.32196549e+05 -5.48457973e+07 
 9.12842895e+00  1.30979574e+05 -5.36096157e+07 
 9.33892805e+00  1.29816722e+05 -5.24012950e+07 
 9.55428121e+00  1.28705591e+05 -5.12202072e+07 
 9.77460036e+00  1.27643885e+05 -5.00657387e+07 
 1.00000000e+01  1.26629410e+05 -4.89372897e+07 
 1.02305973e+01  1.25660069e+05 -4.78342738e+07 
 1.04665121e+01  1.24733857e+05 -4.67561179e+07 
 1.07078670e+01  1.23848858e+05 -4.57022619e+07 
 1.09547876e+01  1.23003242e+05 -4.46721580e+07 
 1.12074020e+01  1.22195259e+05 -4.36652711e+07 
 1.14658417e+01  1.21423236e+05 -4.26810779e+07 
 1.17302409e+01  1.20685576e+05 -4.17190670e+07 
 1.20007371e+01  1.19980750e+05 -4.07787385e+07 
 1.22774708e+01  1.19307299e+05 -3.98596037e+07 
 1.25605860e+01  1.18663829e+05 -3.89611852e+07 
 1.28502297e+01  1.18049006e+05 -3.80830159e+07 
 1.31465525e+01  1.17461556e+05 -3.72246395e+07 
 1.34497085e+01  1.16900262e+05 -3.63856100e+07 
 1.37598551e+01  1.16363960e+05 -3.55654913e+07 
 1.40771537e+01  1.15851539e+05 -3.47638573e+07 
 1.44017690e+01  1.15361936e+05 -3.39802913e+07 
 1.47338699e+01  1.14894137e+05 -3.32143862e+07 
 1.50736290e+01  1.14447170e+05 -3.24657439e+07 
 1.54212228e+01  1.14020109e+05 -3.17339754e+07 
 1.57768320e+01  1.13612069e+05 -3.10187003e+07 
 1.61406415e+01  1.13222202e+05 -3.03195470e+07 
 1.65128404e+01  1.12849700e+05 -2.96361521e+07 
 1.68936220e+01  1.12493789e+05 -2.89681604e+07 
 1.72831844e+01  1.12153732e+05 -2.83152247e+07 
 1.76817299e+01  1.11828823e+05 -2.76770059e+07 
 1.80894658e+01  1.11518387e+05 -2.70531720e+07 
 1.85066040e+01  1.11221780e+05 -2.64433990e+07 
 1.89333613e+01  1.10938386e+05 -2.58473699e+07 
 1.93699595e+01  1.10667617e+05 -2.52647750e+07 
 1.98166255e+01  1.10408911e+05 -2.46953115e+07 
 2.02735916e+01  1.10161730e+05 -2.41386834e+07 
 2.07410951e+01  1.09925562e+05 -2.35946014e+07 
 2.12193792e+01  1.09699915e+05 -2.30627827e+07 
 2.17086923e+01  1.09484322e+05 -2.25429510e+07 
 2.22092889e+01  1.09278335e+05 -2.20348361e+07 
 2.27214291e+01  1.09081525e+05 -2.15381738e+07 
 2.32453791e+01  1.08893485e+05 -2.10527061e+07 
 2.37814113e+01  1.08713823e+05 -2.05781807e+07 
 2.43298042e+01  1.08542166e+05 -2.01143509e+07 
 2.48908429e+01  1.08378158e+05 -1.96609756e+07 
 2.54648190e+01  1.08221457e+05 -1.92178193e+07 
 2.60520309e+01  1.08071740e+05 -1.87846516e+07 
 2.66527837e+01  1.07928693e+05 -1.83612473e+07 
 2.72673897e+01  1.07792021e+05 -1.79473864e+07 
 2.78961683e+01  1.07661439e+05 -1.75428538e+07 
 2.85394464e+01  1.07536676e+05 -1.71474392e+07 
 2.91975583e+01  1.07417472e+05 -1.67609372e+07 
 2.98708461e+01  1.07303581e+05 -1.63831468e+07 
 3.05596598e+01  1.07194765e+05 -1.60138717e+07 
 3.12643573e+01  1.07090798e+05 -1.56529199e+07 
 3.19853049e+01  1.06991464e+05 -1.53001040e+07 
 3.27228774e+01  1.06896557e+05 -1.49552404e+07 
 3.34774581e+01  1.06805879e+05 -1.46181499e+07 
 3.42494392e+01  1.06719242e+05 -1.42886574e+07 
 3.50392221e+01  1.06636466e+05 -1.39665915e+07 
 3.58472171e+01  1.06557379e+05 -1.36517850e+07 
 3.66738442e+01  1.06481817e+05 -1.33440741e+07 
 3.75195331e+01  1.06409622e+05 -1.30432989e+07 
 3.83847234e+01  1.06340644e+05 -1.27493032e+07 
 3.92698648e+01  1.06274741e+05 -1.24619340e+07 
 4.01754173e+01  1.06211774e+05 -1.21810421e+07 
 4.11018515e+01  1.06151614e+05 -1.19064814e+07 
 4.20496491e+01  1.06094135e+05 -1.16381093e+07 
 4.30193027e+01  1.06039218e+05 -1.13757862e+07 
 4.40113162e+01  1.05986748e+05 -1.11193758e+07 
 4.50262052e+01  1.05936617e+05 -1.08687448e+07 
 4.60644974e+01  1.05888719e+05 -1.06237631e+07 
 4.71267322e+01  1.05842957e+05 -1.03843031e+07 
 4.82134619e+01  1.05799234e+05 -1.01502405e+07 
 4.93252513e+01  1.05757459e+05 -9.92145370e+06 
 5.04626783e+01  1.05717547e+05 -9.69782366e+06 
 5.16263340e+01  1.05679413e+05 -9.47923419e+06 
 5.28168234e+01  1.05642978e+05 -9.26557168e+06 
 5.40347650e+01  1.05608168e+05 -9.05672507e+06 
 5.52807921e+01  1.05574909e+05 -8.85258582e+06 
 5.65555523e+01  1.05543132e+05 -8.65304782e+06 
 5.78597080e+01  1.05512772e+05 -8.45800737e+06 
 5.91939372e+01  1.05483764e+05 -8.26736307e+06 
 6.05589334e+01  1.05456050e+05 -8.08101586e+06 
 6.19554061e+01  1.05429570e+05 -7.89886887e+06 
 6.33840810e+01  1.05404271e+05 -7.72082742e+06 
 6.48457008e+01  1.05380099e+05 -7.54679898e+06 
 6.63410251e+01  1.05357004e+05 -7.37669310e+06 
 6.78708313e+01  1.05334939e+05 -7.21042136e+06 
 6.94359143e+01  1.05313857e+05 -7.04789734e+06 
 7.10370877e+01  1.05293715e+05 -6.88903656e+06 
 7.26751838e+01  1.05274470e+05 -6.73375646e+06 
 7.43510539e+01  1.05256083e+05 -6.58197633e+06 
 7.60655691e+01  1.05238516e+05 -6.43361727e+06 
 7.78196206e+01  1.05221731e+05 -6.28860218e+06 
 7.96141200e+01  1.05205695e+05 -6.14685568e+06 
 8.14500001e+01  1.05190373e+05 -6.00830410e+06 
 8.33282151e+01  1.05175734e+05 -5.87287543e+06 
 8.52497412e+01  1.05161747e+05 -5.74049926e+06 
 8.72155772e+01  1.05148384e+05 -5.61110681e+06 
 8.92267449e+01  1.05135616e+05 -5.48463081e+06 
 9.12842895e+01  1.05123417e+05 -5.36100553e+06 
 9.33892805e+01  1.05111761e+05 -5.24016671e+06 
 9.55428121e+01  1.05100625e+05 -5.12205155e+06 
 9.77460036e+01  1.05089986e+05 -5.00659864e+06 
 1.00000000e+02  1.05079820e+05 -4.89374800e+06 
 1.02305973e+02  1.05070107e+05 -4.78344095e+06 
 1.04665121e+02  1.05060827e+05 -4.67562016e+06 
